0.4677996005655953,-0.9474350133123168,-0.09979759699282921,-0.4451886286163928,0.045451289207619525,0.8032350360405714,1.3132476368997577,-0.20209948275442607,-0.002200795602996109,0.429865645481484,-0.06625930875823118,-0.13055581588454956,-0.18931940088010327,-0.22177552452519467,-0.17567847275050202,-1.5978286765180139,-1.2886011627323903,-0.2183005731277874,-0.666630552376596,0.12193611871203913,0.13202906147035134,-0.15807267875908776,0.3198414622727328,-1.6634410679783629,-0.21910204681297918,0.15686029602092383,-0.32565534952116254,0.6815815780483825,-0.175934563037141,1.8925171379276664,1.2674083545429717,-0.17324175610379966,0.12513496673023158,-0.7830949472208125,0.23558256449997358,0.9140052082525607,-0.09578012562154717,0.9371257866388724,0.5433833685018303,0.39816496805797763,-2.20967846715232,-0.7764930102675405,-1.2614780675641704,-0.8447069336129814,-1.3830978681001764,0.4980279618186086,-1.4458522528570956,0.2011022325784083,1.10840617017191,0.19885143055404678,-1.9111107700470424,-0.28655838961398444,-0.6579439525403359,1.363774952538034,1.0313614282323578,0.4315518316051279,-0.7531068663161887,-1.0899310192905665,1.509569892129207,2.7129499950119826,-0.11442682809160033,0.7088952512003042,0.8612875750238256,-1.5054219328087404,-0.29509525951270926,-0.7420218283978407,0.5132293023179827,-0.9572369569876138,0.60489639062543,-0.12398569959118948,0.4575168125605068,0.03409556528963397,0.9262497056131548,-1.3676779050348562,-0.00330135100900906,0.24767267484379266,-0.0024843854014314232,1.390624432628206,0.3624699866961725,0.5763868282360668,-0.9485648406226087,-0.5576808726935548,-0.20606318051344794,0.32622012174565196,0.34551853364916724,-1.3739237696349695,0.27692932819960775,-1.2460233835688657,1.1410125783226128,0.7164714092880856,0.0661735438546891,0.25488949629960966,-0.31375984509206867,0.9861016854361747,1.1125433847714803,-1.102163586462472,-0.6955485609495247,0.42194295126783254,0.9927821729170724,-0.9895333352440153,-0.11796855271457812,-0.15763865441181313,0.6029690529908431,-1.1613836364697316,-0.8140038051025793,1.311973238799272,-1.103692492916499,-0.6042374791643028,-1.0987444817360514,0.7482005280732907,-0.43285562609310096,-0.8001148429633037,-1.5286897513308826,0.24919297519227018,-0.08286550743310422,0.9830729136274682,-0.10649009485343135,-0.2211635480046532,0.7202253437173184,0.20874876764098768,0.09997143141480971,0.3929149088302963,0.5440602755767481,0.40606974373301175,0.342935829980143,0.031604285267227895,-0.3069921893291779,0.8793452854728988,-0.7845501028137893,-0.5159011075050218,1.9926620696816757,-0.17132693735781054,-0.26305310841218066,1.5430220131583945,0.0669756550332111,-0.364031812311386,-1.1099582377962325,0.031844994667832076,-1.924942965920184,-2.058807662834329,1.4264530385265055
-0.23151232186171694,2.081708721337594,1.3884046673067987,-0.5810485390393761,0.7723361173269472,-0.12479721436100549,0.09924320438594898,0.2857994876293253,-0.2817519805653519,-1.6244568800232246,0.3970382405749494,0.43491139655653593,0.6000692515546445,0.5185103947420889,1.0435770779668048,-0.04348700174790196,-0.42590464317596505,1.6865810643689705,0.7114103308676711,-1.2696463855851008,-0.4883385566436807,0.01550204373232797,1.644994304090146,-0.2905693463503504,1.0917553739296308,-0.36922286920198577,0.6153865308611081,0.803100096059582,0.8391449157977178,-0.43517572457358505,-0.6222085879811575,-0.3086400673856129,1.6850503573320499,-2.304032753599422,-0.9577207766830518,-0.7498708170140739,-1.2559376793263057,1.1027080797269215,0.7096651354708244,-0.8109638417577062,0.977965066036564,-0.047708127227181554,-0.852476075102624,1.2667973371586958,0.7841273828239311,-0.25665351381691054,-0.9007021564933111,0.21528605618257823,-1.564431311859103,-0.31863103700621326,-0.27921425299355307,-0.33466521237644153,0.7684344854923206,-1.1355229466190206,-3.4845786539238057,-0.20946973288821158,0.17388807084782448,-0.784402561473236,1.3540112951688088,1.59390885269647,-0.09665803146477014,-0.7540836281763255,-0.80710928678689,0.8220671452454931,-0.04909575918202011,0.9561578899205072,-0.12253844007429081,-1.428359841001452,0.5997336801977499,-1.0267269468783846,-0.7400409078000333,1.782365071838036,-1.0828205895608591,-0.9541013578629638,1.0907573137004816,1.89450906687916,-1.876475453423871,-1.8130739477510103,0.2274881346221377,-1.3227234065377709,0.5239480167432026,-0.6204379279107756,1.5727133588641709,0.5631175445936245,0.33466684676752445,1.7835218397649888,-1.004136440761098,0.8410809165196799,1.200054259367234,-0.9060095094420592,-0.20198322600048077,0.3044689444350548,0.8887586128770947,-1.5784395593947096,-1.5356454772144599,-1.8625114690677453,-0.5165154729318079,1.4385082286215853,-0.07871759161341417,-1.3022811024196017,-0.7311946835741675,-0.48573600789371874,-1.0562813072122748,-0.4117137420279577,1.4138216026593695,-0.22834635832843553,-0.5245826188478513,-1.1400030622566633,1.6162962941578556,-0.4257375527597279,-0.6313949055922566,-0.1030709839721842,1.0100695527316197,0.11843371010667204,-0.49650202800245996,-0.20015460726410367,-1.0232126399723778,0.2872584778650147,0.33164281679621244,0.32715572341601673,0.07299338264200478,2.449131064854699,-0.015172274927494978,0.23882019514976643,-0.8516124853334539,-0.1135083949844629,2.3158278660562126,0.44455462477893154,1.0277670727148314,1.1152719658789922,1.1599615065118636,-0.36969077659565686,0.38361769975331844,-1.4743958456295607,1.3967662988645249,-0.2885999522085394,0.593305148298649,0.4015364496600078,1.4755623319316287,-0.5410949169898172,-0.20884980760269928
1.583956730359776,-0.07231110694578728,-0.4755606433809684,-0.098704143457517,-0.3024472479159974,0.6784299853203511,0.37678107622589485,0.27452281580436494,0.9221035768727663,-0.33403152167742434,0.10352050341110622,-1.778097901496242,-0.00469099579795206,-0.8940716293670666,-0.3983847715379242,-1.614354794694309,1.5063897268466508,0.47633940010674314,0.5974936874879275,1.2014676393839832,-1.3905489673428237,0.01827308220530791,1.4042948413231582,1.1296989117799543,0.6592963932515511,-1.4452450640005734,-0.049074264859253106,-0.9330608829258632,1.5181347582985458,1.073408720321996,0.3130536400856617,-1.3767353073082915,0.49907580019894876,1.0578104665964387,0.7444097519617813,0.8048511452626075,1.0951263833907046,-0.09798066998950976,-1.6976301540256833,-0.9925995314217264,0.27698471906642225,-1.473117680936325,0.23295085776437596,-0.5379154558965722,1.2189283165043454,0.2936969905323563,-0.9256207377696686,0.5898443573624547,-0.48518044124446535,-0.39545393771375875,-0.5346386897197883,1.8313063904211306,-0.2731708142680474,0.003554323858463833,-1.5292153759779747,0.5047833220540633,0.7709178739342492,0.0660754872313684,-0.005430113212000881,-0.8040309596992548,0.8123042545379644,-0.539488136747212,0.8246764610573557,-0.498133475967944,-0.062114705130236134,-0.7404845449529237,-0.8218761710867,-0.23045453589106452,-0.6574304792477068,-0.26864405350359866,1.3632707815958258,-0.04224824071415355,0.17482905792378162,-0.9823682730562653,0.11466850698112854,-0.6918848981469485,0.27284198004142957,0.13588540810804217,-0.251252775354377,0.19732599496260794,-0.5649543965412773,-0.34952735762439313,0.4176230243763244,-0.8365970728645821,-0.5988462919898335,-1.2975334066418962,-0.22274425207165732,0.21789598078444042,1.1176346228300469,-1.713407376909857,-0.10275982143272995,0.9971050878785316,0.31847640784317344,0.9606658295629636,-0.9949063697099919,1.683442688164371,-0.33814163975476463,-1.536256934420044,-0.19457293110613905,0.0008758574682658886,-0.7969087819385293,-1.2140344531361256,0.6066671952689434,-1.0146454436025656,0.14418570851148327,0.6816557024075707,-1.2902267674915804,1.25453185934371,0.3200924605819265,-0.110984625767557,0.375423422545617,-0.38605030855896993,1.0809942444155054,0.3789713032640501,0.6333953795017054,-0.11173150019093837,0.22946946174876823,0.05143876205778088,0.4149652957852292,-0.16504213288587105,-1.6754609002276535,-0.36312237610658105,-1.3121721051598525,-0.9323535580624446,0.9007536403770974,0.30763758569993943,0.5344156962668392,2.543971627993476,-0.5378940425758836,-2.0036326416385273,0.09793062342553471,1.9610815295897868,-2.1084733405760385,-1.0605485774080832,0.8082217827822014,-0.031155732871855767,-1.0841747529798178,-1.5924885822081698,-1.3904904338540043,1.4583415245439466,-0.7456274639363151
-0.7002331473313035,-0.0013482267491400617,0.4984903492354521,-1.3129987365517013,0.4128015291982538,0.302263000104601,0.02065989940287844,-0.07887129612685612,0.1390678554386575,0.7748600073499808,-0.25686030572702834,1.1859887384708911,-1.6336933040194141,-0.18189721419066002,0.5024950574629347,0.33556372287948816,0.8317944575980313,-0.7150248024583197,0.23753078138661599,0.2829198642107885,0.7384066599428071,-0.02684584353401054,-0.7972652124480665,1.1716937559128608,-0.41072734546745837,-0.16450866762938243,0.6398723835000025,1.398839785537544,2.0710944680397683,-1.126576371708667,2.131042741387273,0.8036240268608597,0.855078885656547,-2.022424156476351,-0.7979956924276775,-0.4332045564500419,0.21561941947656454,0.08520035889571781,-1.0463809842198306,-0.7223990121095012,1.5459532320021416,-0.8051699107782091,-0.8278114114182519,-0.2376172677980148,0.9389982832967612,0.1668160215576518,-0.36320571426135667,0.15619930254526287,-0.29568816452127117,0.20889416272338956,0.30462667287858697,0.9229016369058446,-0.29557206132873426,0.4768970504943143,-0.05611404375665787,1.9798430822229658,0.36371500704032367,-0.8341282626846035,1.913625809496959,1.0181723208911875,1.2469523068329047,-0.7716544176455588,-1.529268274924289,1.6315527384354334,-0.41161601183588475,2.0274253641338045,1.3256782352630714,-1.8422294028302484,-1.0473637976664885,-1.0399502014796784,-0.03066260900652619,1.3398277068206743,-0.34412038918908594,0.15108872376967383,-0.04018577064024612,-0.47424492957414244,0.6328506931238633,-0.305937240432395,-2.005257155994939,1.4278769410122878,0.08339294125873889,0.4340185165064614,-0.08365935438506662,1.167197775823667,0.5628929318662718,-0.3123537446232861,-0.11014647115167998,0.23438975760601258,0.21719784667714057,-1.913384144274716,0.16202127353448706,1.9747984022763745,1.4124841042645724,-1.4828770017810364,0.4739104721266817,0.5135267470545174,1.2581020635097926,0.33259312071905484,-0.3364771473245453,-2.7807660390682534,1.392495562975155,-0.17277457952071534,-0.5034875985229683,-0.7741694954960011,-1.1838407305005538,-0.053303060376695,-1.0301011026693485,0.27406582958404935,-0.24887917015218936,-1.0932395477048484,-0.3400555976239257,-0.569529652736229,-1.5243415049022524,-0.4145148738153607,0.8664368705790169,1.6141653027391487,-0.948769819058275,0.0710364433332283,-0.4165176698726173,-0.8508745499813295,0.0910939594185079,-0.47896530591155884,0.485578358403337,-0.41340747605405054,0.3592893695366583,-0.3482113389731819,-2.1607828538026044,-0.5637275793993868,0.5161719586254162,1.7302809081987622,-0.9721912431729063,0.26962713531008276,0.86046742851304,-0.3702659520518328,-0.19966017804128822,1.7936307283846364,-2.1530859292426956,-0.7632539614551571,-0.34904874077735754,0.7580527402958959,0.523892797478744
0.7017679761371892,-0.49773509158019197,0.7486097641717109,-1.7839481962809984,-0.6043809698814115,0.28227465808929075,1.2896328098477183,0.36071721293712367,-1.0789489729718877,-0.7976074771861429,-2.2938969365389132,0.8372281726270496,0.829931403951133,1.1545513558653562,-0.1766547344590991,-1.665498597890374,1.298643591052604,-0.7158812323797704,0.5864850927500689,-0.6674549806581944,0.17279108206086172,-0.030154284882655754,1.5430381449686958,0.5682740643880051,0.3101495853335831,0.149653624114065,-0.6054468483552794,0.2331821961776437,-0.55630475921973,0.2684340208705889,-1.4124735262605619,0.8357139427789005,-0.6029132767235585,-0.21942260708482794,1.7364770131830816,0.7176006693803284,0.7937545217172646,-0.477777517126807,0.24413460871325207,0.40912418011284146,-1.055519639976684,-2.088939783816493,0.9900884200667057,-0.6012719585794798,0.37743705654249565,1.31674441245803,0.23856626145947532,-1.9019306384339842,1.3992920922288172,-0.9561110293595699,-0.7701152844212792,-0.9941714451586662,-0.1321297198289533,-2.6706892738825014,-1.1534522880483709,-0.4010599515722556,-0.5681967327713475,0.5769606172753313,1.3553071540939183,0.2333212009743214,1.859552750951727,-1.3289121400846668,0.5648849041454994,0.44744063517885074,0.8681878502954944,-0.5533197043789917,-1.3444644663145773,0.7729668863045208,0.19287314905810302,1.102391785641477,-0.24664845142633118,1.1771607277757425,0.9984897525620602,0.8933644203356009,-0.5827997859000583,0.5938667787974923,0.14532694321691614,2.26084116397698,0.15682063022903373,0.3491144577507228,-0.22825252489496617,-0.1470915642905497,0.8254658064284816,0.0894208325752917,0.6590991315474258,-1.145055530650642,0.13843298595767586,-0.47576913830590967,-1.0354943703836437,-1.3776477251117678,-0.5811062311359647,1.7020629713723454,0.32490707408970004,-0.5209864750335345,0.7668723282855483,1.4862395703685942,-0.18192518350365583,1.2512167897427433,-0.08488686130288597,0.9324109630439269,0.543664406437557,2.285647206684663,1.9767912590075507,-0.5357536112281099,0.8514943624804074,0.17339073521419363,-0.5291430562826153,-2.4338841921321634,-1.202623776692372,-1.017583935985289,0.8412079522003775,0.5688573625155349,-1.3004677422245075,0.6114179712330186,-0.5073872205156237,0.9923673645150022,-0.47821262463478226,1.9196171741356076,-0.17627606149995792,0.7219654377751308,-1.4039687985049032,-1.6165666028005587,-0.8584230752981699,0.023993903601992918,-0.6976009315739718,-0.9658671496303373,-0.8161411156003597,-1.2049463815548986,-0.5028527206518438,0.18813370230590715,0.5092696889055283,0.6267674607857501,-0.3340878056789295,0.5936192482275507,0.052565623094274976,0.07622663431298411,-0.6146979352427643,0.20085537184376,0.8578165124698404,1.7709720723219529,-0.46747859576451745
-1.168509093956441,-0.46846629126956063,-1.4559442675370449,-0.13713030781318536,1.5231593335139673,-0.9620445996235892,-0.1750614315880093,0.4929007973784665,-0.4535567213410786,0.20540482874324717,1.9764918551912087,-0.08214483236225202,-0.6175362605035096,-1.6634572376537557,-1.2285104591313551,1.1495025356523485,-0.3769983394535832,0.09846120080968777,-1.2777255238774603,1.062470885852033,1.3770890977566996,-0.10194290152382567,1.1133743976761898,-0.8482716197627713,-0.12406566611663804,-0.4451891695987157,-0.19840375044621,0.8273143973846999,-0.16979849376598122,-0.662903406241238,1.0039781886995247,0.03613553788869696,0.5329680087999193,1.31375744776928,0.24526335585588488,-0.11542923933359663,0.4777585477889509,0.8274693683645217,-0.20907295294818465,1.1013755092410893,1.0518414817812793,-2.5725108685914377,0.47857588071079316,0.590583399234797,-0.39780539394610787,-0.7958834772766548,-0.2661359431229445,-0.38311244314695214,-0.46049877682115054,-1.56031159741615,1.6452563590636777,0.7523456433680668,-0.3159292256077653,-0.17157377339098764,0.35754139645008254,-0.5339058629009521,-2.2466405467092883,0.6813957190362362,0.23962259862464352,0.6265487732099145,-1.14659999237858,1.1580860730894618,-1.1040809804368266,-0.18636734963375104,1.096221668694345,1.2241256267591636,-1.4263528816115154,0.2510715339657689,1.4383922072668234,-0.3973533740011939,0.6969927393604868,1.0033305013344052,0.6823577551578482,0.22662473460493246,0.3867743317728724,0.5599323597555267,-1.4221523941877727,0.8881990792288826,-1.1911238722362996,0.4854385347655506,0.23908556090112734,-1.022522386964729,-0.3674347972576479,-0.17983847331534916,-0.4723690512652268,0.3388693433146517,0.599982114461013,-1.4499521083536404,-1.0095109539344151,0.0297104360738344,-0.12994514021798997,0.4684886070425846,0.5490152528580804,-1.0278729635981232,0.6214892958615734,0.6112249795614692,-1.1743434069924525,0.49710054803159637,-0.27462641795754467,-0.013698315544750364,-0.9248260084370402,0.8785640828906195,-0.3668807245289508,-0.4474547388093033,0.6117041718477237,2.4620891550640116,-0.0916943927483622,2.1754610802588714,-0.6244397404309796,-1.0572158348609084,-0.641669546703735,0.2173196994977479,0.5340766095008701,-2.2980805691913586,0.5118056744527586,-1.8134040860170184,0.5994760862785874,-0.16961333898726424,-0.1492822212141308,-0.3723561264967059,1.6370056390328653,-3.496153214913808,-0.1637905864572974,-0.11919173237570752,-0.9082952182685198,0.8159949028328909,0.3174550510095127,-0.7512134145258526,-1.6364286365822458,-1.2941702844055483,-0.7783404015559156,1.000728386786115,0.835519865455385,1.4343506614528843,0.40749995052648313,-1.126478875594877,-0.11871012841163182,0.4803640263797696,0.716087370090638,-0.668223190619706,-0.8938977640244968
0.6269595414910075,1.7357847692951,1.9417911085558286,-0.6988583911679483,-0.9531912188834939,0.5424118777253352,0.6235782540325643,0.5978048928958983,0.6503271955029634,-0.42022971480489607,0.40214978278464536,-1.2011856639980527,-1.3235453966853037,-1.9085628231188945,-0.3496420725908686,0.5463394569617674,-2.042233455848966,0.8028360450866224,0.5594899216139697,0.35508438218805594,0.4344538517611171,-0.5237737656778633,1.0227188988586293,0.01895298027256824,0.1536128195662086,-0.26253202115080243,0.5016211902409059,-1.7130865995999642,-0.7238946313647721,-0.6079166136522478,-0.5607391374474101,-0.9691990304005218,0.16542832445161898,-0.29071656802297846,0.2705534098681461,0.8482226630860703,0.35621617039533954,-0.6941493943819653,0.23131761874336496,-0.7417971241326888,-0.3017949551455933,1.7146624782106645,-0.3281124297567072,1.2149987016038204,-1.0707266345436368,0.8210202959902096,-1.7945870829527595,1.690017230588828,-0.3483242016546464,-0.04274050637331136,-2.449558761444053,0.06573397728130184,0.37739113415299874,-0.34998879926994997,0.2650923980246899,-0.7806670804596115,1.1904275811357943,0.776963122550672,-0.553740314695118,-0.33321702703694156,-0.09256766329446862,0.048492788767840606,-0.316941906617395,-0.12560203549836774,-0.6179495039682641,-1.8817894302568337,-0.28073754129277617,-0.318642678054063,1.0981402472858546,0.7578981434692857,1.758184495865991,0.4881082025021225,-0.12371305038253086,-0.43190474317188104,-0.9528260923623301,-0.9743176220669035,1.5107906475166204,-0.4581378158446189,-0.4768808398766294,-0.3235714893006715,0.03901933144716537,0.7065454892891097,1.2028864517301963,0.8627365588922209,0.47342126405491775,-0.1481262782980384,1.4754422233332363,-1.047650258610208,-0.8788580102440303,-0.4940146387508579,-1.1255448251060804,0.9704043651768844,1.0758544006478696,0.1771379059244109,1.0467261285384484,-0.612383746441192,-0.4730251913089622,-1.0360249301352313,0.4373601578749893,1.7320108384144826,-0.9890405239168117,-0.6837010693057907,1.7434573882772348,1.1438924543947888,2.277119363325217,0.7724272397368894,0.7086855271600991,0.46117746450969316,0.7677624906177299,0.2786208008372316,0.10855827173980387,1.0409003792297806,-0.13540730559119318,0.27231618161705407,-0.41090586745256585,1.201260271365409,-0.3628270909208402,-0.34531382245244524,0.27467555447974523,-0.9077634009582938,-2.143750816608972,-0.2990742235058303,0.38107896400490826,-0.6264430397187977,-0.6974869467146609,1.5250953338804287,0.412902948685958,-1.113517363481464,-0.88295038470386,0.6112421544633129,0.03459291543665377,-0.9019714797312374,-0.6361134444779402,-0.2184770304747636,1.020276892554496,-1.0772383242338452,0.6569647329775393,-0.3502343697754057,-0.01967540596720425,0.1820250637515813,1.2447009375253055
2.052181817181293,-2.44760721346862,0.6419838132159545,-0.3625866948596859,1.2172885996930614,1.0207401309035409,1.251811508686757,-0.5619152547426696,1.9055237462460899,-0.16425463394889037,-0.4027922646411301,0.19026969153653814,1.4655898521447077,-1.404791106755189,0.34052294913430825,1.0026666226074854,0.45957917178712987,-0.4831851297644359,0.14089744082581,-0.04655172892614422,-0.6764817549888708,0.08107888365353685,0.4659478543273955,-0.23825385664986437,0.6271607567343817,0.5224279924710628,0.3928036739572491,-1.3977015737792629,-0.10002410247380975,0.024470855128021763,0.5610152479356539,-0.4532864383591457,0.7243306530519582,1.5440521372873521,1.46387275065312,-0.13912235083039426,1.3553532921539377,1.0799563748206606,1.2311852695025576,0.9720052244935258,0.661592104637395,-0.055596084879878174,-2.5431831094637722,0.11235536606481898,2.2002778226360977,2.09263347215899,-0.31143405187447476,1.1530533966620629,1.7255767872354344,1.1025302165089566,1.0512871113374582,-0.6370983495266499,-1.6487840881335027,3.461406054503005,1.721545770942217,1.120530504263973,0.07265550265441885,-0.29012441644081727,0.41309726063175267,-1.3954371926466633,0.5275542864700762,1.4367032957167214,-1.092345742342628,-0.7313236926662897,0.8469700904407559,1.7300180404701437,0.6569974809374559,0.043560634029390775,-0.47647945840164546,0.46584794698283705,-0.05573901202986665,-0.31778108802745925,1.4851023105593573,-1.4374752301532714,0.34763434835608265,-1.0866246180554457,0.6464904736348719,0.8018881978136447,-1.4663423529935342,1.6988232743137737,0.3902697242547788,-0.908028027338449,-1.203776770657539,1.1284123989951422,0.6607882396738501,0.3883303253849385,0.9481025502034854,1.4823517976015623,0.3529754649705975,-0.2615735807774121,-0.2383505059732226,1.4883716203928938,0.41556688169376715,0.8811605891454862,-1.7393254177105213,-2.117444713792844,0.22531660579466917,1.8076177459964728,1.625053510115191,0.35079376540917406,-0.491707893945637,0.14910698913585407,-0.3425612147603836,-0.38458136309228835,2.466926747078545,0.8291045638801556,1.0670401893003945,-0.6701924016812483,-0.010274661093336678,-0.6658203029536586,-0.335851856721865,-0.2139963925572429,-1.8388208175804923,-0.5076812493673523,-0.960420336061857,-0.627628299849534,0.7507306719559105,0.9140606138617491,-1.5665838449035236,0.7754441118955059,0.49223548478761875,0.9313263708488884,-0.16443258460053822,-0.6414436667184157,0.33886745068460755,1.642703113924942,-1.1443720791934613,1.4169353860938059,0.42478764912084555,2.1588044246495937,0.45119016164033726,-1.3044536147771266,0.9087497847844275,1.2590553916655305,-0.037424510572379915,1.0036143037795682,-0.902781849543534,-0.7947007650651896,1.7251059940083124,1.8464778749116433,-1.0189703217827153
-1.3418945012737808,0.467641480776029,-2.068158103772068,-0.9202258343411615,0.6828397059479709,0.6286842798396486,-1.1347544494360833,0.5038366342779845,1.252260566219704,1.7098793288404313,1.0241226897599265,1.7672626812761616,-0.345119970278056,0.5279862028909433,1.2742591864089359,-0.6666534739028466,-0.7990083231086683,0.5191130772278633,-0.7305016325094309,0.03549798594008167,0.8490782837782218,0.5746146145221326,0.8482384250507461,1.0761347910622525,0.39713597868691947,0.6892923507410491,-0.5729199342799667,0.10116933281777764,0.14644175460563927,0.4676241310064708,-0.18514130874276624,0.5492434818382397,0.1614270439859834,-1.117777483106446,1.3577243410757565,-0.10194398825806388,-0.47410163096891844,0.9650000451475039,0.5934386592285886,-1.8147491615858133,-0.5422816006887369,0.6413449892572127,1.0649403487132059,-0.37900810201127755,0.3717620046232044,0.20299595825835862,-1.213413840758464,1.3866330231774509,0.753206214577387,-0.24967287813553496,1.681928823566848,0.7258664134353168,-0.206747405908583,-1.9466755159399405,-0.9068959892528451,0.055809241207971254,1.931042245379167,-0.5984478670510945,-0.3976042751923454,-0.9905853669155076,0.39827713806231746,0.6501094799187048,1.6704190737024633,-0.4579712583393097,1.0552455332415938,1.015112132115603,-0.5163365907535402,0.17517820974905357,-0.5803059510212916,-0.49641137826439735,0.33821469211980165,-0.35002462498069375,-0.12243867629285757,0.007556772180302102,-0.8682700873978474,-0.08020728218853686,-1.6381581002629693,-0.05468786091078568,0.29863515544724734,1.040117586936557,-2.0152127503422217,0.35396580810699524,-1.932068311337323,1.5451175919027853,0.06732479510246378,0.9623910592106182,0.5733424948656327,-1.617372167134561,-0.717946895014032,0.3435006943321163,2.4668680828078036,-0.8352042956480272,-1.1551479334514265,0.8214007696900854,-0.7568003198856739,-0.06168938780798321,1.1319098708312256,1.0087214666023057,0.5972796061209787,1.3956800170613382,2.2387271693610615,-0.7634977001387734,-0.24502784466987287,0.2533354779783182,1.754243641438062,3.209146163589454,1.5237906049525045,0.9021781092781402,0.719013095782917,-0.5329628394387657,-0.6602851315509471,-1.2745024223895598,-1.0541293291390414,2.1156375041545465,0.1487040848081277,-0.22276053318136924,1.793212645284613,0.18825743893105013,-0.29749522412799495,0.5569372741564456,-0.524456395694917,-0.8227917996808563,0.26938381989095456,-0.6691184697720745,0.7512975761124736,0.21100878894399586,1.3932846726936008,-1.2233459224319387,0.686240944771911,1.359142964737895,0.5011197769479577,2.7743934886701194,0.5106819473369565,0.20927871442838322,1.467343892538329,-0.7373243045156668,0.20279846434802257,-1.309739799408513,-1.3787922088933102,-0.2547597461099318,-0.8797030813005441
0.5420093418245342,0.9041777268150923,1.2352719030893071,-1.8200768156952734,-0.4318886264035064,-0.8293440483105017,-0.17213125660564357,-1.5689456839293605,-0.9994704694150718,-0.9063690011427791,0.7193527620371915,-0.022538735853432548,-0.1058383232260359,-0.04648738016947976,-1.200066966092839,0.11975887498065013,0.91869602530329,0.6182931061450736,-0.3871937137494316,2.3588167035642313,-0.6957629390697306,-0.41982384270639345,1.0523916352594127,0.6399358966015912,-0.21991500328112154,0.08000397626432014,-0.21032354496077788,1.6657181186543906,0.4537744485423063,0.8076199335301002,-1.2500606378877503,0.32210423652710807,-0.08537582719206518,-0.4676133194696793,2.1052990054803984,0.10040019147581143,-0.5501811531181584,-2.5103333615420502,-0.425124658816272,-1.0844812057520614,-0.13761016421240715,-1.52391345285194,-0.5990089092222868,0.4261750070782853,-1.3820503417037113,-0.3624944297190024,1.9227348390002774,-0.12908874831163583,0.47017096541189846,-1.980314136898844,-1.6904510739330687,-0.16792403519750815,-0.46541414800519404,-0.39587221775052,-1.1274432117006281,1.1533471897307452,0.12741505059817676,0.057538257704615126,0.45501199015864807,-1.3207505174603185,-1.0789831150985232,-0.7499839004241317,-1.2191898981738383,0.3223427527504757,-1.3966355169264326,-1.6524720560654367,-0.9309959254500947,-0.4294582307490053,-1.1297830551159616,0.751197541219506,0.7454570256202969,0.36311553798425633,0.5135170916541285,-0.47042083578364136,0.6219508845837843,2.1403427813036164,-0.33619445568146844,0.9035027089344864,-0.20348948646976991,0.1653109504722561,-0.14715028028136484,-0.5885938498382443,-0.25551624808694545,0.4904458675921619,-1.4786985178874752,-0.6552963178135944,-0.0164635198613407,-0.0759996853525034,0.6164251451596958,0.049766183110513076,1.1249990143130588,-0.6735715270454741,-0.5331262331145308,-1.7700692341273234,1.6991241008755922,0.052464488399587214,-0.2140915783374508,-0.3836387093472902,-1.0826925435219716,0.01985994836271557,0.40925072858821243,0.8622352732389763,-0.5988511246347082,-0.21693314086540377,-0.17656853034551748,0.12035948252049423,0.17370792758138018,0.9433265921457644,-1.2056045062537557,-0.33149712010528637,-1.2840933382427353,-0.2644716953121397,1.9142737203985931,0.8092824258222897,0.8855472085051499,-1.5829311357409726,-0.08120464050839948,0.3648119253238138,-1.1405881284741064,-0.12852259615278083,0.760066547907594,0.864516917790165,-0.7346858108709347,0.8735503215208853,-0.0905337805107712,0.7793091701409958,0.4156252099027962,1.0260851123032275,1.289749257802722,-0.22291409274054758,-0.3630709750321072,-1.1218807579583234,-0.07548837725486039,-0.638553905833849,1.3379711220317902,0.6167674001101489,0.41118769244016456,0.6464766958495461,-1.6630718851037725,0.22385369516724388,-1.2677440286841533
-0.09212660536981372,-0.4352293553924281,0.3030955838992156,1.1337165022818068,-0.8448714244202545,-0.8510406375520233,2.7125657843310194,-0.8052630315221171,-1.2167336903062766,0.17516143824784866,0.3905039899463409,-1.082765074645933,0.5672153891166999,-0.05883123780811445,-0.25895309208086126,0.5330179673145415,-0.7040436362842246,-1.3694416228373858,-1.3831389301726806,-1.0723932131568301,0.09395256085489435,0.023661740236305715,-0.08109590634783816,0.015480889414320747,2.587623299258991,1.3528423821500681,-1.5825555915687564,1.397407902031324,0.39138215705707013,2.5300122934463958,0.46818640693978764,-0.09762837358804605,-1.2330137906445435,0.8413880202557603,1.940393495096021,0.015565552943725067,0.6925604236617585,-0.10723563803235113,-0.16230781907284872,-0.47345037553110236,-0.4334291733376943,-1.1334315777502773,1.918492196151189,-0.184179397548036,2.1312922630662112,-0.8217551044635282,-2.206811654634659,-0.761997886377357,-0.9141985739141311,0.12874509017509583,-0.3417952317660398,-0.3464477512848626,-0.6162799631319954,-0.7483710575847617,-0.2472724537588519,-1.1329763262058965,1.3062375101511585,0.03323760702007632,-0.3502833002331033,1.244808142735156,-0.3720810468283869,-0.8839098533678749,0.05638174068227354,-0.4834406231553451,1.2540248037487576,-1.3823701612292254,-0.41947509222211304,-0.7792361592401721,1.3580241548914356,0.024367801037197198,0.32117917974396054,-1.6549298001761132,-1.5978389806196183,0.4335223992811597,0.10077158744357889,-0.2216851139569569,-0.6847292886153165,2.093277111978037,0.4502656592504199,0.8081031662598502,0.30330715129837826,-0.48977280266402096,1.1859440418754383,-2.297551342231626,1.0595374676652682,-2.210017595342924,-0.2532159085689254,-0.2913396672995336,0.4982222308110291,-1.2487262085908675,0.04460063250470212,0.5921742452427359,1.4882692536912394,-1.6394510944198881,-0.799619313822443,-0.8509306733684884,-0.5323665271715506,1.1876729140563098,-0.3934755045275657,-0.3649949692366476,-0.6707471206768912,0.27901567324713555,-1.669185837342405,1.6869945083161528,-0.7394341034061561,-1.1385265936313433,0.5021882483790837,-0.15484775091326683,-1.9117906100655555,0.6142372870605012,0.49512167580705974,0.21504901855809244,0.24669133197339477,-0.5372151894150798,2.2166408412546543,-0.3937270623700581,1.2898889162666969,-0.21403384842117068,0.6305297284573368,-1.3395274900756116,0.3801907718395015,0.43252511816240247,-0.39760109074042227,-0.9270304330095172,0.15951864960730333,1.1930922234238985,-1.6926877483216087,-0.12068200725482237,-0.945061316849541,-1.660982895359242,-1.3647190525038388,-0.8901623897772496,-0.995938230756964,0.45357048199928296,1.0850360629912639,-0.5571267934250047,-0.5201745060281008,0.21477636902100067,-0.7027951258150159,-2.3980031986888757,0.6204320955972149
1.1039184824363655,-0.33960915385136753,-0.3149715346975524,-0.8175881611778777,0.5170615196806231,-3.076900167505954,-0.4072364648902732,-0.2632316318051989,-1.0544082150982366,-0.3312655643250673,-0.4163518135560979,-0.10574395156467606,-1.1027720891952926,1.3865790327130922,-0.3563925173178025,0.2671141773402193,-1.8917280119764786,1.3870410804040543,-1.6274355860342715,1.0871630342307688,0.8965960674867791,-1.167402472199853,0.6010296193148912,-0.6839493703167134,1.4031604413322316,1.5304477280224862,1.7610350183030778,-1.8071951373132469,0.3236775978491381,-0.540404532113913,-0.10689783853556034,-1.0925461856126537,-0.3464370167568437,1.1029966041524815,-0.08617629971643358,0.3088805256196291,0.8911883921688359,0.005460393708457409,0.7966440406754188,-1.465059609893242,0.31109704811883976,-1.2161675708029929,0.2821523444011104,1.1418439315250326,0.4316961077360349,-1.1493582824306188,0.1446813756233979,-0.3794377546952014,1.1177110893108773,0.31338448854732587,1.5590932639052548,-0.7339720403882926,1.7641678619755652,-0.763820761975463,0.44017744534411146,-0.4119151842110116,-0.1961787682824505,-0.6931130067657257,1.2819883374918308,0.2877141780533112,2.1278005290537534,-1.0247179346659903,1.0439553771595371,1.4522296524059242,-0.13614137857049746,-0.04606471284359278,0.5063197562341054,0.5212070481097245,0.4439221756342898,2.3489729311982313,-1.41612801356519,1.4894229956677012,-0.35704093281690424,1.2258966426163413,1.0376921642275967,0.2504133315081231,0.37515690443473587,0.6603614653139454,1.5405232565869262,0.18849637519857612,-3.1868278983204568,-0.3047471165545309,-1.1315783693554045,-0.4502869759513216,0.43264148194974894,-0.49493624691074717,-0.08140935000871126,0.2025629508507768,-0.27523926954932876,1.8621114793032612,1.046249904403723,2.806024110219255,0.6499939277286746,-1.0200900264217163,-0.2826061717312325,-0.961269710886236,-1.581326012665035,-0.6241854877290167,-0.16213801903590946,0.7456516327221079,2.648177607729592,-0.8274039197954108,0.3940347918100087,-0.7459268673990612,2.3532925258848767,0.2437861798443697,-0.7296664423072088,0.29470322639904317,-0.6403628950813923,1.489154004655227,0.7897757878954087,0.03896827713211153,0.47043611831650944,0.5468834352667636,-0.585586018765643,-1.6687442773855767,1.4702902248334548,1.8102216001874258,0.9014857515466994,0.6912619374464097,-0.14732040829342732,0.14622358940735308,0.6333231303087495,-1.1538106595805195,1.1467484113675115,1.9410401612143942,0.08364200562985726,0.15878979905094975,0.37920406317853866,0.4502887978534404,-1.4001850361551311,-1.446397072202035,-1.28675757370867,0.9937768762292919,-0.7437225660031174,1.1813437709665404,-1.0768608826653165,1.0311717859434875,-0.24644215958234789,-2.706873876147578,1.407313920392992
-1.3254453035062828,-0.31734200325257844,-0.6806757624608365,2.2592782801810256,1.250245003959247,1.0040102810180442,-0.7252042623109478,-0.6305391759765887,0.5915669149771069,0.6872300363599511,0.5276692208252708,-0.8301686098593641,0.6831640622140839,0.22538977274408928,0.8152533653361446,-0.02957369383824758,-0.25550932475246296,0.08206789918408304,-0.47139623166143163,0.49036510237001546,0.43784956230558825,0.39760552351776596,-1.1707972487286942,-0.4680611433510555,0.5225242714061167,1.6625626840541161,-0.7896054755057705,-0.4168298049242489,0.21899402843975266,-0.47038755581200337,0.8311679290849915,-1.1443897473016966,1.0595309923886105,-0.10836994541098711,0.5644785877163889,0.39485253158603767,-1.671366066308638,0.13550783980655587,-0.0009137323708630212,-1.3192160628486376,-2.011056680896647,0.6978470845211314,0.6345008036285142,2.2654212757304273,-0.3626095511184136,0.8197378368858739,-0.3671121615703224,2.2776480099379697,-0.750100159736225,1.866488728116632,-0.15122601773946806,0.7822279467456232,-0.27635380566757173,-0.6259587261196295,0.2798568513121033,-0.3028993008904802,0.3168102529638802,1.2056647392305186,0.8369372608382315,-1.0457828047456759,-0.3539722029783386,-0.4599817668801377,-0.1262647345419026,-2.298311718930152,2.5466221730189993,0.15352252312155917,1.7043933369996973,0.30419367092998983,-1.189148544149649,-0.8449279598329036,0.13951572770948856,-1.4357566299882034,-1.5961414709639368,1.8461336866390916,0.3176537167733756,0.6199597273031423,-0.4678132874343451,-1.9070345126107784,0.9075227028668016,-0.623147263184826,0.3256341422707672,-0.33477239814499643,-0.526048210589318,0.2254130651107922,-0.3203649827687371,1.0351524351210128,0.9801513302219336,1.1734279673012111,-1.6085366069061242,-0.24682207277974613,-0.22598031566071336,-0.15540067522923448,-0.65662043062656,-1.8966876262328103,0.9607842178297908,-1.5529639250210927,0.7810462304914104,-0.5737233450472553,-0.46112518446632556,-0.4963732811261252,-0.12721221894970686,0.29379779492998553,-1.887362123776991,-0.4685926250273053,-1.3617409558145046,-0.8496294704279728,-1.3966404246479478,-0.6138623405449563,2.4467593978457396,0.6334150017450433,2.650292322047685,1.055515807277566,-0.7486826670241513,0.43786659243961457,1.493212367535708,-0.30649280420612013,-0.005422121341449827,1.5025369824070938,-1.377186107444548,-3.3458803443593417,0.2870185483866632,0.1176533176662903,1.2811583686461139,0.7268916692248979,-0.2131523985995033,0.8213429227591874,0.38603550316441754,-0.8107793519845418,-0.8935907401028508,-0.27177290072633337,1.0781385360909055,1.598563611137375,-0.89544482483685,1.164705866025517,-0.31843270710331245,-1.2221101982933429,-0.19671754268330308,-0.9772257031255123,-0.1751399542226791,1.235830040393748,0.36502636988500786
-0.7924101037860649,0.31233510675930803,-1.7387328254434629,0.9389957857006124,0.4355967956487812,0.3920912357850299,-0.20416436247638384,0.04079022997373804,0.20229874500075606,-3.848593121834348,0.18258112899994008,-0.1795372757294991,1.4252553357941895,1.2444608837213718,-0.6524609052410609,1.779944714600656,0.45861953622045853,-1.4989151071223112,0.11820372123214838,-1.9730922247866025,2.0037645447623937,0.1855662517654783,0.7880844789528153,-0.14054385787844018,-0.9211970698179579,-0.9644378005582194,-0.5796047483108694,-0.7182327026225086,0.10584223576764461,0.5191244536152734,0.1085130683216794,-1.2791338039574,-1.6599303680615949,-0.03590449041140067,-0.5867321280598543,-0.6059178758490203,0.1642695728046713,-1.1137970329305862,-1.0053933972590403,-0.5719652429899655,0.173779222200427,0.5051337244365065,0.23014925703559874,1.4983180758771486,0.9021166391703871,0.592082802276164,-0.7541550952195362,1.0039036356101863,-0.9679486020310346,-1.1249749004067013,0.9961597840737085,0.1992589880645477,-0.9047529457732275,-0.6351423801858949,-0.8891514489963063,1.1628569003384392,1.7909642063984146,-0.6679658920629927,0.2763472807694161,-1.389531337742136,-0.5730480224817843,0.6327538722141964,1.1233077867085957,-1.1502425956174533,1.3072007956770804,1.27941629299155,-0.5379810749107159,0.33125117379563407,-1.3170145349194957,-0.22012554964591335,0.14326510687006927,-1.332275286265313,-0.8634761653771947,-1.45134516699521,-0.18159482874956115,-0.5699037383563044,-0.014122391304475939,-0.3189388193028902,0.7704352358974307,0.493925494268604,-0.6993509115642308,-1.0545495743153117,-0.1710986836431427,1.226334995578496,1.095788060770735,-0.9092217761867725,-0.16203608582872536,0.4230023813193544,0.5853832852852812,-1.832243843323217,-0.9157226194593553,-1.0009221411646032,0.9311468553353627,0.7128108087730338,1.376795377675453,-1.390381422228556,-1.0455017005577845,0.6174773384307106,0.4730303931556069,-0.8182033330156302,1.1387456984161743,0.406417493919386,-0.7762241229107784,-1.7330175497949902,0.6097942118110077,0.5947024880389276,0.01232297176971096,0.11231216171648732,-0.6621068908301142,1.7172245531144021,1.2446063265867429,-0.607955610231184,0.5253253264972653,2.037865009015407,-1.2043465167483147,-0.3109044427716201,0.7320827831836092,-0.927708584046628,-0.44940894823049643,0.11576258775982616,0.7550063325371893,-1.9951173851331414,-0.09343925520964236,-0.8028001643241229,0.5237618153813226,-1.24537788910219,1.1921202109757247,0.291151499172189,0.32320944932777534,0.13997488963628502,-0.03762013810786652,0.6872670446489973,-0.8264782914487336,0.07224553979573745,-0.34505763831224295,-1.3888487056860976,1.0736269056756675,0.17184573341058812,0.4562281756137942,-0.06766413951002934,0.7081469539536399
1.3337672362537778,-1.3692164474592365,-1.190641898592652,0.35318209591147653,1.2074785874425873,0.5449414563638459,0.1353648732058303,-0.6210045892683916,1.2448136490173918,0.5194598441016335,-0.9810468658023606,0.13820796643632013,0.3442664448112176,2.118268591945787,2.110985314802155,-0.6203169904528725,0.305569825582498,-0.8527147601869918,0.1281887491723653,0.3222689124528,-1.8313400421082053,0.09772326810294887,0.6810524738564651,-0.4915490039638336,-0.15429623111443297,0.43568856548005075,-1.6287983406820525,1.1178780216421702,0.4034444298784493,0.312506389871108,-0.6658385107559978,0.42276742064235573,0.04359701209105593,0.06199528370025917,0.7435949387761046,-0.8676700750581378,0.6671572992659592,1.8904529197953392,-0.5355703652862364,-0.3800308292800095,0.858711200285637,0.9559995905224224,0.47206668995703704,0.04900589012083995,-0.07776319115949909,-0.7393873173974503,-0.10428529286837379,0.19632314163098927,-0.8975124378836047,0.58064233950674,0.27504995163921303,-0.976397129979289,-0.9052520414091061,0.8501679548222189,-0.3227831582645866,0.13353203621803722,0.4734711675339437,-2.941695379341023,-0.41439874890464534,0.48771304184047665,-0.14963558543105807,0.029545800307719205,-1.0580415288687945,0.9564434568261491,2.3236651629515963,0.057326318239695015,-0.9472199274770735,-0.9655012806117512,1.1525652803133153,0.07084574887210368,-0.23897999500059017,-1.3815518443602133,0.14053095907345273,0.4284123433300295,-0.024020145574451746,-0.46088900229878293,0.9456600354039454,-0.8625519627738173,0.5245252963176645,-0.07850124013052201,1.0644588459091155,-0.15798185743755058,-0.9118485038653176,1.2858793314844734,0.24874413232808307,-0.8500816335090368,-0.049177228408861184,-0.3929618690557813,-0.5483376489559227,-0.2133617309541999,0.9197217619449006,0.3292128343860132,-1.2530007231143285,-1.7807775644096873,1.7071183961557175,-0.20999051797341867,-1.0337602801836365,-1.0977886023032206,-0.15284338092392932,0.9215674623001047,0.40569438017106274,-1.5374435071544974,-0.1762930876757777,-0.16042271136761127,-0.38252369425634597,-0.0034418903098415283,-0.781496407494926,-0.7650552489887845,1.0197421042558024,0.5929195441964745,0.6097084782418029,0.11891749170803291,0.36017440549818425,-0.9690352323836545,1.8365404692247416,0.21959364577590762,0.36249282294595203,0.9397549725651212,1.151591771981503,-0.540516710005254,0.39885138687186206,0.43730859731984356,-0.376746900491082,0.06880033165864312,-1.2605430995346385,0.6288640079155189,-0.9765494693043443,-1.1206915576072756,0.8361349431925584,0.9382296617492214,-0.7975827197844,0.966955007263201,-1.7634101241411975,-0.902755734633059,1.6322822605847132,-1.1735979913473176,-0.2417534813969397,0.2533374481728678,-2.4698393406383494,0.5359298017363465,-0.5647040498744357
0.36504173344644913,-0.17256214750664306,2.0094573396035362,-0.8365697399413403,-0.20538927184379493,0.5633900484931242,0.952183399838988,-1.1576535151104965,0.7817390967853958,-0.298383890027078,-1.1156325227925032,1.5085946937581027,-1.274709338352031,-1.146271914140851,0.7127392545907646,-0.6025510026379046,1.658474505876264,-0.05530143803240898,0.33689899218217917,-0.7723224704584403,-1.1920464103977004,-1.4851443003374956,0.4737973202973297,0.8388754711396553,1.0698842868155882,1.2156759571841405,0.18314800836211895,1.9120197591444725,0.8563158349790825,-2.011266570575662,-1.0256783472104416,0.6173391736654759,0.32731849794736084,0.38345012398484235,0.3694185436681708,-0.5664747574576489,-0.3895101395008766,0.63103403531629,-1.9762499950347512,1.7857599150257006,-0.17410342847150695,-0.08797813725568733,-0.955953600610493,0.24147630567262662,-1.499807389998284,1.9550903971126306,0.5419162298468124,-2.088069202709141,-2.0959619471357294,-0.1681877560176625,-0.47942180504005205,-0.6000151190645567,-0.8007952828944646,-1.2568378309459523,-0.011657448972842141,-0.8704415155436909,0.49116025482615744,-0.864465709942885,0.1560325993599312,1.5782970920884847,0.06540916874563109,0.0030742401380502485,-0.6942857254811523,2.1244753973168846,-2.1364382426777224,0.18710346375173975,1.1498469672862963,-1.704997703633073,0.9144356552777402,-0.7191666448032631,-0.35888687359853666,0.12960424793157177,1.0845010082592779,-1.8438321766339376,-0.7296053643425584,0.3346135761933708,0.8047807986629026,-1.0763929833624324,0.07021837180040427,0.16558031944103954,-2.103540650299904,0.1267019276863569,-0.631238888140903,1.2222705622952161,0.07558998045696311,-0.5681780118757825,-0.5291622803621638,-0.4232794334459419,0.5103927257361389,0.06577991386424838,-0.7103472543643887,-0.6051868365416836,1.6810289103876535,-0.259704909109004,-1.1531648543815665,0.4564281222605955,0.32553561445410173,-0.2962864392189509,1.647389023605457,-0.44107852159656835,-1.1705609784518662,-0.6827523792078454,0.8398391120727349,-0.8293551461844334,0.4424361285435545,-1.1961965761268731,0.27820430326567075,0.2412892254584986,-1.9939067867044038,-1.6281963166404403,0.884148126926038,-0.4409534238971759,-0.9351801166703365,0.09399965764067908,1.1707828509077707,0.4371006043094103,1.3982761844551805,2.605344144516732,-0.9421976834517631,-0.4660612026163025,1.981658157493857,1.753702359721934,-0.44978168223907306,0.3174980811337204,0.544464401224305,2.6110879286658197,1.521311258592963,0.6649021867238708,-0.8737882948257851,-0.2684954633307329,0.34509911703337565,-1.6247566316664548,0.08591868076768953,-0.008807833217107068,-1.4607469583865618,0.03763117762874855,-1.4796104624175255,1.051441603189326,0.4165574325139433,-0.9737355109982703,-1.177854064846269
1.0287035681845391,-0.7353314061646445,-0.7042704849885392,-1.2937433042913093,1.6246297168861779,-0.8031130308672902,-0.47195638334314927,1.341974136149764,-0.9980730476550151,2.2143376585728527,-0.04288242935190798,-1.0893433542516766,-0.6417808760856671,-0.08091263888712291,-0.19731766885166385,0.1272699076731751,-0.44452458510747195,-0.5062253672490635,1.407083362516784,0.8694236702583387,0.32421862408820096,0.49315135797610876,0.455582761400398,-0.7064116457459633,0.6073960519186625,1.026216386904389,0.9968318589127967,1.4727019804895982,1.5386788491766623,-0.07176037010712709,0.04127840518521697,0.15964953254575037,-0.2006069006174672,-0.5518851686426735,0.7266490640449466,0.017892284529283962,-0.9197633722465461,-0.1806673482108908,0.4835381913723505,0.5922114835182805,-0.7022975642484762,0.56508566641796,0.9597696756426767,-1.0858909385281486,-0.4066674919072276,0.9758998732946804,-1.240594505348902,1.500443235010484,-0.534595466198597,0.6212177371491974,-1.1764632627953726,-0.05980011197495537,0.5549244138965641,-0.24437121981636398,-0.6023401823565129,2.1456745825452868,-0.22163546318280955,0.698786890119864,0.26765657178985486,-0.07962904999955187,-1.6355547583136585,-0.2802133201929504,1.0460701018188654,0.39771410629067644,0.1975211206299168,-0.007469893031922479,0.8697864052875545,1.1990752750816662,0.596530333337247,2.1311003900881222,-1.7234029570231388,-0.7657960771757758,1.1628574034198247,-1.2741133789314414,-1.0311363193544119,-1.2552149418502148,1.3484448325965048,1.0527216456749877,1.5396230227032315,-0.20736324372379816,0.9785954434851124,-1.6176222739277137,-0.4922206403649458,-0.4993573516288043,-1.2930424459196102,-1.5736369912194068,0.1737608156137881,-0.4074202158432348,-0.1134060633706971,-1.1739197771641356,-0.4570389784773675,0.11072013740300331,0.6839908872244025,-0.039394790737116867,-0.6366993369391161,0.9564891481894797,0.4038801664805924,-1.3143767892942924,-1.2148103051554984,-0.7892520783895912,-0.27133921730584953,0.7107011219317216,-1.9769208403476777,-1.1781350718573496,0.9864899265634537,-1.3440554537398006,0.1738607250712827,-1.9895133170073271,1.6905128163526602,-2.061041906778901,1.1367925203623075,-1.599388671261956,0.6907840717730681,0.19614270644572984,1.086849807221162,1.6776981634926194,-1.3741594533371821,1.9452117297825298,-1.886287617843962,0.6273623184917326,1.2110441621098424,-1.3034597407998225,0.4153016234245222,-1.0074996012929143,0.256321173018524,1.3325550848388659,-1.2325290898226704,1.0456179914455745,-0.885599727094824,-1.3626502103192168,-0.7747837473452619,-0.3974146879591336,0.9356974919591643,1.7000214849609534,-0.3165906621493174,-0.2096769191484873,0.9357456904157494,0.038761237596882284,-1.3483007595727203,-1.1889676017146207,-1.3752536148566683
0.7318982975123777,-0.3945896855703743,-1.4603829924323113,0.16598097311034107,0.12604349932005376,0.84804230890067,-0.4434489824046387,1.1464644280233522,0.8271378069585471,0.46047485838437974,-0.19492053702587955,-1.4096053199374434,-0.14737373415524452,-0.5106045620392671,-1.2357561185336627,-1.3619054923928238,0.7774632076042713,-0.355863178615983,-1.8523524397901676,1.8803189842817591,-0.13216599066232573,0.23357153994542343,0.9468883777525134,-0.3803085405605424,-0.8819283971095059,0.4600417170262187,0.020002259904247466,-1.201164305490142,0.36349654400946063,1.231409972496572,0.5103688067307517,-0.002702290670142089,-0.6781017367391292,0.08955143794882374,0.35782255047359757,-1.1611583971826582,-0.10362296983382444,0.4024701270506137,-0.1552065709009566,-0.5604036991283233,1.058975606925162,0.2700381263394055,0.5421873630818995,0.3662729121804049,-1.551990371988523,-0.3444054670768387,0.10582414678749512,-0.15549043014866637,-0.6288293382532587,-1.539820201706291,0.34740706708586255,0.5171675862905597,1.2534184817699263,-0.7537935534185797,0.19259604174748873,0.4973961205875484,0.08225299699990808,-0.2615947795945447,1.4473307135566833,-1.2095348258628915,-0.6103557514609249,-0.5096847547362382,-0.09705380477692742,-0.915908383998168,0.2825483162972322,0.63910588136963,-0.023192249839618245,-0.5381063222878558,-0.13557782492657233,-1.374492259822076,0.9884144071822171,-0.42712220176227894,2.3579244300837683,-0.10448207350570027,1.1174417638015786,0.029531460606409238,0.6102273300479802,1.5028297407069064,-1.247950592382236,0.1730883702988104,-0.40011394109361226,-1.57042912432634,-0.14125059852428773,-1.4925105816343058,-0.42202146208647806,-0.1401635860985598,2.3985672337277255,-0.35101407741886476,-0.022452389548939317,-0.2728410662349735,0.49775004356773095,-0.4916692972620151,0.16135288336260864,0.18407312950774185,0.02028661887627447,1.8281719052571237,-1.0758630541850012,1.2891687957588818,0.4289308284606918,-0.09774429812318162,1.5277119824906582,-0.6132071486485279,-0.9596209888001899,-0.713564491262634,0.4476144208078988,-0.31431468244681315,-0.7899155701741247,2.275569234747384,-0.7296812617972939,-1.0384899371372531,-0.6267700005065667,-1.2552550426943463,-1.2643754802609382,-1.3209411755182145,0.7901494343649479,-1.5168260325134828,2.029078215609917,1.0484495080721492,-1.2248015631366056,-1.039813444703768,-0.11824440353135261,0.4245840666007931,0.7010947993094374,-0.039023424084397206,0.8212212920711253,-0.7447795429798059,-0.3482460597896524,-1.7063320341367572,-0.2671065102168828,-0.9017294967484065,0.6221689547804772,0.5668244485432012,-1.0541580113920308,1.510646550464204,-0.21740923137268567,0.9659608691527087,0.26342228040016563,0.5095198896547583,1.4025420289611805,-2.120114590354426,0.7798409662183758
0.1570172527623834,-0.429519953308167,-0.03140614681062043,0.18120395685143534,-0.838012058511289,0.9615215908279735,0.6728676528881917,0.10083301630253719,-1.505808828542963,-1.898324790179023,-0.9916685760862229,0.4786580458275401,-0.5171793973830416,0.47228203483709796,1.2881792954156743,-1.2415542799661672,-1.9787510219420417,-1.2391004988086256,-0.27951054164028005,-0.42652368827571924,-0.636064773143549,-1.8820723661013972,0.8388680550155198,-0.5906542326315409,-0.4999999192634814,-0.051072597400937704,0.15498154243528064,0.6773250063336222,-0.7743697879717075,0.09353268331037824,0.979994097200645,-0.45879703736296684,1.1437452614291732,0.034301933417257124,0.3282256696012347,-0.579638519909658,0.4011029355416372,-2.0695246527866864,0.5672681200992962,-0.1068440944367047,-0.2505807687689399,-0.37459067231781457,-0.43784388671756086,-0.10298149358825555,1.1240054037701632,1.2023845597634522,0.4002641280566203,-1.802671992084903,0.6714918621675093,-0.3666136873458544,0.3124019712980474,0.2616328825448204,-0.12166509494187638,0.2265388279873459,2.3946059340776764,-1.4649279617796707,-1.5302995088235563,0.44899394452540703,1.2242935612528214,-0.1991178293220556,-1.176554595888603,0.004910990869121074,-0.349234721332058,0.159726574184824,-1.37472772496629,-0.4910843200379036,0.4802367427158941,-0.6308262425284485,0.39068022824806153,-0.06103488143427781,0.6401775847921084,0.1004450737620966,-1.3282761629111333,-1.135039924770433,1.3003306138624684,-0.2978018542849984,0.30516263455124687,0.17454664220549512,-0.6363525488107753,1.0767226213067276,0.8650427558020654,0.14867336265394715,-0.19897381370451567,0.2201626284936313,1.3332406201693572,0.2845978175632576,1.4832687284314325,0.019987737736005293,0.17007889077156818,-0.27631704260790907,1.6308482075729556,0.2619085734902023,-1.225320158231948,-1.0813915205717866,0.17613653356180825,-0.6348490438980178,-1.822460439049878,0.8487571765757681,0.06946521480803937,-1.1192880508381808,1.2985621305951425,-1.2039243432484699,-1.5235398476782498,0.38209918212754956,-0.39997571585873426,0.35417261015190143,0.6521148753934354,0.2777473886580879,-1.8681503633135483,-1.108086324958249,-1.930127600217326,1.3484263458222636,0.42364057294089635,-0.2827864746137153,0.2573510967267312,-1.1614114982531687,0.9148856538591463,-1.4107132646239047,-0.8002348967111619,2.04284213635654,0.6508537407034651,0.09669355406187001,2.4329236423126046,-0.4830545314263272,1.415945353390923,-0.7976578065442588,-0.897430634058438,-2.1846123197438714,0.46945641724258264,-1.7733549220947296,0.11484164852503745,0.7693087288397522,-0.12085828128265921,-1.4225827440353553,1.2509554862892716,0.26558206280766367,0.2145770461557821,1.4039707762632068,-1.4609665379541845,0.346549098467824,0.6359090984426737
0.2570945908767554,-0.9181565200264011,-1.3521793760936502,-1.2856042169008803,-1.9578383976017757,-0.28664166928028867,-0.3313226385736887,-0.8921529681434751,0.7509947907824586,0.7391444757019963,0.34912982334177556,-0.5312544186572381,-2.29940582244086,1.1504372888526453,-0.3322880013654767,-0.730733105924254,-0.6970647893834907,0.42191670707788403,-0.8395044733587408,-1.2256814604012578,0.8131334610924821,1.6306608812601064,0.22569808216664744,0.2716578775692262,-2.9784144074893164,2.0531338859005164,1.482186755463482,0.787347015325128,0.0698895386591756,-1.245453852162496,0.6189478357106621,0.13805678060300644,0.2205602856859993,-1.6114380585190569,0.7286676669063893,0.0994206687645831,-0.15751665984976268,1.3909347406245538,1.466416926876658,-0.3986475763524389,0.11069554855322004,1.2644801031237516,1.0526565037136653,1.0104625929313873,0.4537849816619547,0.47689547677119887,-0.5475823202493113,1.1817870433639797,0.04135704164141205,-0.5071703694177834,-0.6219660807751837,1.2887167991764803,-1.086220657589596,-0.6039677122836052,-0.2749065556239247,0.7067874787928932,-0.7420354567804401,-0.026145688990104658,-0.37882220485763984,-0.3373794564251378,-0.3067034894338415,-0.6478727375018335,1.0091355675115936,0.33120937470357487,0.45919541172034806,-1.2287169806367215,-1.0616720687137033,0.4663140625697019,1.1799227636776166,-0.6385853121008804,0.48861396146896896,-0.6175274064116612,1.1779314328184607,0.24259295934464825,0.4716696997554619,-0.37475564835712305,-0.03417237344522775,-1.0781411432788495,1.0143067850132093,-1.60364602113587,-0.9938455384117129,-0.38937861293224096,1.971045405136072,-0.5836466789173334,0.3775582601809791,-0.6106474811060335,-0.27614046939904374,0.022875773603463514,-0.4615475105948464,1.0548680826704493,-0.16353614647576734,-0.8703153108309812,-0.0221824348077248,-0.29688544607936357,1.7106676261410678,-1.1132011953359116,0.3352672052110126,0.2631717812988749,-1.9687815026850515,-0.2579330784789258,-1.6421179076069021,-0.17931330021049932,-2.278896734300403,-0.43054359491039246,-0.6022786583448199,-0.3370676289756445,0.6497187318261016,0.5448907973726607,0.2754801167883726,0.993603581105951,0.40305360582358485,-1.00984192278848,1.8756553677155348,1.8771964058061321,0.7806833342620115,0.9521426706400242,-0.35145348233279367,0.07566635619234993,0.72846281076928,-1.1333641728074875,-0.7786802248443891,0.09913462057071168,-0.2849243874079407,-1.1235377282205787,-0.021339137193632382,0.5150033607095303,0.007346534536086143,0.27913380311470837,0.43843385524199663,1.3969642775131446,-0.3967978768364945,-0.10570332019927545,-0.564049636088168,0.46071249227630495,-0.07907468547165764,0.44837631615810597,0.495266156313706,-0.9277483314669208,-0.42749127944291887,1.0420043999735076,-0.2654645839483442
-1.2463471065112743,-1.1947738681018287,-0.35067594298675736,-0.27697211429457136,0.9562562887057481,-0.1176765530614929,-0.12680478348941568,-1.1932114018462083,0.025311869436194148,1.782721837811782,-0.10069673642035515,1.7403577621291877,0.6923666339869811,1.6907425333451493,-0.00691453890148058,0.3731540019192538,1.1632946497831091,-1.8899497943209211,1.5226782156274028,-0.7272878128657742,1.1683289768593406,0.015527806744629936,-0.622776062929718,-0.11728808497571223,-0.16218385445875586,-1.284787765301765,0.7102742749037068,1.3621670900492926,-0.34157367439479147,0.777233490659158,0.6944747974539088,-0.12566732130512812,-0.3155903562788533,1.3577296511162658,0.022703048270466774,-0.12009588464029802,0.6611232657628009,0.9032967456892443,1.2617079374255762,0.1772689643669975,-0.33795364202263295,-0.5143398465876251,0.41524933092595806,1.6874967516361854,1.33514085763678,1.0730055156504885,-1.1512247883437392,-0.0004316035919845159,0.07474477915111444,-0.17026988499479215,0.7595206994299858,0.36922852287835317,1.3947253489022846,-1.4413092342982252,-1.6476362383716712,-1.0855867645825015,0.5029777899951966,0.8562563653841513,-0.0941237571522671,-1.637128733590857,0.2252087447025217,-0.6709729081069468,-0.10608658244198366,-0.007409525829257883,-1.417402355548273,0.16547538331505757,0.5587537770850941,-1.3011282715007981,-0.6901643874206412,1.331204583649447,1.4480360924731357,2.0590903804029494,-0.1260505389714941,-0.20207021442618098,-0.971567472691027,2.58256459392171,-0.06141301061407795,0.5767741648649277,0.7359556970650812,0.5063059594274707,-0.18078228169503985,0.36993333198473877,0.8311068994302961,0.20638819199393865,-0.11486977253352973,-1.6811383045873438,1.1469854524310017,-0.5473867635057325,-0.5400725371658825,0.05122746094890935,0.43895497918998166,0.8710478750105561,-0.6453124223320509,-0.39586256753421295,0.2925596067662472,-0.48582376132490585,-0.42001126723106147,-0.6831029731935278,0.4644092375537356,0.8689861290740292,-0.2662366952143186,-0.8491206007015674,0.6530383540745524,0.4536117735881738,-1.1604505434921908,-0.060276379920630514,-0.741321047652301,0.25158715643040513,0.9008018100909873,1.1890259386829631,0.5641575217282062,0.21776820476752115,0.36323328240023744,0.42976490702218695,-0.5433793258312903,0.322815090784392,-0.03364443544255024,0.07888941351629747,-0.7626348716779585,-0.10113981805834255,-0.5953665473486742,1.1390815364553488,-0.05450815504382929,0.22598536850992532,2.3288044854966765,1.0871128765925864,0.722184885727134,0.9241255400021123,0.23370052210159206,0.8840331224869016,-0.8522299101021423,-0.16231288036299185,0.7959962350304344,1.1767373240063135,0.20108205010120206,0.09803159505189905,-1.1269574659167818,-0.4044908976982413,0.6561140595151737,0.3208647512594828,0.7025821619580899
-2.309513769811432,0.38265113813673773,-1.8528010969303967,-0.508346606101587,-0.10262415122621882,2.185869083397803,1.4665118158358046,-0.0684187815941934,-0.8511951629993678,-0.27620702401192077,0.5645045843980896,1.2226366953295023,1.0175496246786682,-0.12995931774478742,0.3578950896534383,-0.37405448418207743,0.6332364791453056,0.9304899564548352,0.5908030151572617,0.7466330436704547,-0.21393899183570053,0.6040653755970957,0.560420751843553,-1.9400545631819217,-0.045698439983501045,0.6596291907282084,-0.7907496874429669,-0.4406749919560325,0.20894976688063974,1.1527935353511296,0.013227391224834404,1.6622194878785654,-0.09437434422429129,1.273437268915998,-0.27680265192315984,-0.49974858599392036,-1.2779521239001457,0.10547536445714674,-0.9371544726058495,1.031208353785425,-0.9461650550916932,-0.43565977012387785,0.5923783783282759,-0.8310223043559528,-0.18725806785738303,0.8869020281199075,-0.7745152598316288,-0.7182757771108479,0.09138465585039274,0.12501104661757942,-0.514620430753488,0.5815910148015527,-0.5621703073228398,1.0749549104181366,1.2346823919011027,0.4299935168491399,-0.4482228857066536,-1.6541201791027935,0.34854311118483405,0.09297049361302633,0.4247698830941772,-1.16882002766629,0.253692833044352,-0.6804715659664391,0.5594232910133494,-0.7048860593369837,1.5789222668607383,0.05186157440999987,0.08995482855193009,-0.3922789338523042,1.0954516118020052,1.482029424071296,-1.2687167955890621,-0.46397139709843255,0.7173229280897183,1.29276311764119,0.114876163331263,1.5787997807221623,0.6632433596489469,0.5424659179068834,0.3465264939399329,-2.135372997063538,0.05275469068274222,0.5453371272363021,0.9849999872445596,0.3044697530953807,-1.2330907647392662,-1.5595323839522361,-0.680726091262866,-1.0318207108198016,0.17290687847716324,-1.407104830093138,-2.111010942921393,-0.4469183301203051,-0.38757509625108333,0.05469708556803576,-2.00729989349568,-0.07536521966903535,0.2682630426164375,-0.024375291048170652,0.01698097252301342,1.0384515754038215,0.13324734106735406,0.31493450454062544,0.5308402409688744,-1.4132178421805455,0.8537719881277489,-0.8235509665363002,0.20438346753540157,-2.0596054820564595,-1.3719938666026616,-0.0466275278681898,-0.17070785703690888,-1.539989904382274,-0.213299740078411,-1.2651242305021078,-0.2643408499398022,-0.5084956594765093,-0.33179274521291596,-0.2246819660983738,-0.6629869350772521,-0.25482574055330925,0.6174971038085351,-0.8909182850890632,1.2053963326534134,-1.3925859951672797,0.6511968916225408,1.0684733030157347,0.5829228222313508,1.446659241013961,0.7679263386091341,1.35418789805086,0.7470204338728408,0.11817204182235458,-0.01601248892935645,-0.6864651424366571,-1.1570932537844296,-1.2194885877192418,-0.5640723893733116,-0.9257695517826301,-0.573319552010998
-0.04755571190204276,0.5358648418429544,0.7986646267288499,-0.6284481056409608,0.5105953399338311,0.49442755187599424,0.5682482287285147,-0.4127535906714735,0.5743182469316909,-0.9028761367503951,0.3088297815119826,1.3960831001023697,-1.9316633349772552,-1.3688176339347315,1.7351252968772453,-0.1268410388039991,-0.31246699680211043,-0.5097720197740929,-1.1175827889499446,-0.21479218254338714,-0.656244336810309,-0.13567619856698104,1.549155005709304,-1.0953827499542823,0.37287569199804677,0.8438050422391459,0.06565066456277444,-1.3273956887363643,0.6613287185964465,-2.1573246199587968,1.8333482100073855,-0.6870645268575626,-2.0935596025426615,-1.4982395518195697,1.1339933105307896,0.6993195115403749,-1.8116185103577471,-0.3135131485408076,-0.9184865992325821,0.3189326771501751,0.9973806524460468,-0.00978353699112648,-2.259870550187649,-1.410543821415321,0.47510925929554876,-0.47765662396269687,0.016233677967159427,-0.4211441379336361,1.979758985832691,-2.368203335328349,0.6888846122545532,-0.5666221005906025,0.906807632253552,0.8719438892234551,1.2769057539842152,0.4268581720031909,0.006646673064599291,0.00856521414409261,1.5376716234585714,1.3442728287765353,1.117299980567507,0.02590615043361037,-0.8319941418792998,-0.4988400806198114,-0.3895830063804869,-1.580960438699681,-0.23668990486685174,1.9045474938707228,-0.5047446030797971,0.7749217912837834,1.0192144874805216,1.4676151146218133,-0.3880619879083548,-0.5717327780443119,-1.3295220891791193,-0.5471558502054028,-1.2608386618143146,-1.0643929819186628,-0.5665103420144147,-0.1854333899850951,-0.5799825041613718,-0.7668929339219999,0.7808758306551948,-2.9173409319381625,0.1498400923385281,-0.522662279859301,0.3443942425598702,0.53374817798928,-0.15804015109656055,1.453834239508307,1.2115661249456107,0.9125113880206555,1.0820168884771628,0.3019370160628065,1.780049933254337,0.8391413865647018,0.28407367568900116,-1.0292782530410611,-0.44596869476859047,-0.2923467058136712,0.2181864295011896,-0.31506684718216366,-0.12321500556328384,1.206242318461547,0.29240632997586863,1.676638121436622,0.09204366895380166,-0.08446519034247546,-0.041676313157011,0.2609499019376205,0.5577849051090003,0.03797434285397885,0.3862237632551139,0.3427908227328216,0.9843461670453711,0.518024242805102,-0.2531040210473991,-1.0213245894290843,2.382355628393808,2.4828030944660013,0.07226911297962617,-0.08040832065197842,-1.0669893919906535,0.8787505995898252,-0.5536537413142576,-1.224070887746822,-0.28153509827090123,0.552372946156122,0.14386435226907177,0.5003907840711976,-0.5406205069806815,-1.7082930872683006,0.8673759331568106,-0.016057885069047987,1.5228011608212713,0.208172969098188,0.7426077071769172,-0.6656401935986747,2.2794711387314144,0.2065011022150229,-0.8408822478752104
-0.5323620458116632,0.4662645514231403,-0.1626227437834028,-1.3328976051727401,-1.9451612665828493,0.6979777174934557,0.44980984144617603,-0.274176192966347,-0.31853278654299755,0.04176864607709736,1.9143071330767374,0.4207640441910213,0.1875588155272104,2.040117352851749,1.0739736718111432,-0.6839915171225135,-2.098453928712306,0.5620226560716012,0.7915199600194395,1.561624976600494,-0.389924897559024,1.1064889921115975,-1.2905160815025916,-0.8394347719031341,-1.1018729212283498,-0.7411547604156428,-1.3410708105211666,-0.12946304893831498,-0.9340761364971514,-0.7679241844170441,-0.08212558253049436,-0.44323229650438456,0.09377350142637432,0.08508678671164091,-0.9218727829552619,-0.31035274634944804,-0.08846369145915198,0.09828032353074771,0.9079265379616527,0.030840995648967386,-0.12481805202034418,-1.3583269418981307,-0.032692292948935296,0.05423015215231503,-0.9366844120550064,-0.6655241402290514,0.4915998423028803,-0.8063024371313718,0.4733782582312152,-1.7905143558852978,0.11962655890677903,0.11350990363858478,-0.22636937340689528,0.19346576941694402,0.0405530568067519,0.7961605008381515,0.9524753547674674,1.785286403969668,-0.3115755366701828,-1.643941852214794,-1.075200602331432,1.5950063715800362,0.04837067133545641,1.0645050239634744,-0.2867869964312469,-0.6251318287962966,0.4338709632073265,-0.43515287064001984,-1.4737462925193974,1.3327301137697887,-0.021155026940223278,0.7758380005009676,-0.08746336109299535,1.124211754879128,0.5565632776855073,-0.28424770599589216,0.2855000291969318,0.33536595090694726,-0.8900175659773828,-0.5867610307957098,-1.0370936980932164,-0.9392668144150627,-1.4425901938698527,-0.8484254681405727,1.0983827456354534,0.06484875994874094,0.026095018982289227,0.26935904310047404,0.3748956033882971,0.05340827645599475,-0.20383301862781192,-1.8177375695587124,-1.6144524597380436,1.2801882373117024,0.7784180871527042,0.95952112187833,0.12838549006228922,2.734771678465335,-0.4682987553218634,-0.6541241410355018,-1.1109195382072106,-0.6734530185380696,-1.5542966122637554,-0.0489808111704432,0.9389999820705283,0.28377411544261083,-0.6456064111788795,0.7124942054769612,1.32796782854063,0.9257841798726153,0.5478975896127579,2.2289068882492975,-0.8946398891353594,-0.4698054131589051,-1.2313181230890333,0.3080644680765122,-0.7879902729153601,-0.32094311165275047,0.552016470488565,-0.4363843950064069,0.47590014768113686,-0.17735117051668436,1.560120796077421,-0.8080671811491248,-0.9576849375204678,-0.43515248392243194,1.439161938427787,-1.067304324278053,-0.2501563898490819,0.21862550177621728,0.7691889863741794,1.366856795212994,0.5593399195485553,0.3231649350664561,-1.1178305217233728,0.19813511151579175,-0.508828604643113,-1.3504381088637758,-2.312166132928494,-0.9922173528480271,0.23214949248605038
-0.8159236689943934,0.42860223435723166,0.6284006010626728,1.622185081472862,-1.0317556079227854,0.29088122973882313,1.6833483530052311,-1.455493606415849,-1.600026286678563,-0.4918021480378079,-1.0683406815851266,1.546969935362172,-0.7902806618272388,0.16472664871234943,-0.03707576412036373,-0.42673256962736195,1.123715547103319,-1.9214640529303497,-1.1767358540284039,-0.8253799569963559,1.4201423024610755,1.0448266682918077,0.8159577702773976,2.3027573010379117,-0.18057264662970615,1.94871899051045,2.079192209396524,0.5072101866152116,1.5781824097098913,1.6971578148984057,0.2571268691451615,-0.5268428930480571,-0.9185686957442392,1.7945545304073678,-1.1347756484108282,0.9226568654656687,-0.17302949920021465,1.6515267277407284,1.877777494913781,-0.0925398153760446,-1.5048783104851235,-0.3080505320605434,-0.7899799932913018,-1.250315296291798,0.9548978358184074,1.404907186060204,1.3460708286338072,0.1355863942552839,1.887859092210727,-0.8638250562845846,0.800187082385961,-2.128859378658876,-0.5163002123097196,0.3444739281834932,-0.5379441353446812,-0.36533880244495137,-0.43874029454205715,1.2541740744529153,-0.8133454135359867,0.9028219034378508,-0.42815337196734926,-0.09465373560828459,-0.7699187931985881,-1.7913832731946049,0.9939519800613601,0.7244131540969347,1.7258228985323996,0.3848968996853565,-0.040579215605563816,0.6100006968661256,-0.5640275288788263,2.7900952815425453,0.5965128766506649,0.5132715219246599,0.7418739498002053,0.1818560665513663,-0.6027843901738319,0.48350528142411175,-0.037027332420180456,-0.22226419560747757,1.5829915367524767,-0.5809326436931953,0.481870403834864,-0.8644451611206253,-0.6786625449846646,0.508209860346124,-0.966269499340941,1.8987167593750742,0.6902158180499393,1.1368528339487465,0.02839684281584346,1.0416416613894892,-0.5166027032211082,0.10533298680643001,-0.7239632000175192,-1.3562556928171878,-0.6546494451041749,-0.8943429556717795,-0.11050040546007525,1.585216114036335,0.8611082332190383,-0.15558719395170995,-0.5042281480390841,0.8844675838910174,1.4450314248482805,0.05902687967661779,-0.3886205299268668,0.14337672661905002,1.2576974990029022,-0.354891496406034,-0.028613572271214752,0.6094235385904332,1.3033434421764785,0.6123713176924769,0.9278173937315315,-2.1149505719218116,-0.9659475899312906,-1.1587279204070215,-1.265304690504616,1.7482899282397435,1.6368284959507433,0.8212644552103309,-0.010821895268102734,1.2374419394853415,-0.3274574660470494,1.5864597097696782,0.07420897225717342,1.6206416835294475,0.04690760853213672,-0.4948597054113295,1.5945978461293122,-0.2861405274275471,0.17542954149964043,-0.9100602260469645,-0.09089673271206358,0.837397515362085,0.5879776698148668,-0.7570664362220378,0.18159562009515065,-0.17735686581002513,-0.7052758400553087
1.3275678510225812,-0.5728103758683025,1.191764097294896,0.9996916058298827,-1.1028846510415704,-0.9207163191646103,-0.1162353324754654,0.6796063455690252,1.2498483692865698,-1.5505917239049247,0.2521455520382251,-1.3101726462373244,0.8802850549426197,0.3517868306859461,-0.6225632935362121,-1.0021326916640276,0.3395029231391749,1.0761411216524626,-0.8827985350963939,0.3521980925551072,-0.06917470894110331,-1.3068132810921138,-0.5474244045654394,0.33673288517133937,0.5786894587726773,-0.3248877824745663,0.033604290994912404,0.28671266266266615,1.2525301665611506,1.2030278601784106,1.6730114243843235,-0.15758652084601715,1.7314554207967914,-0.4260598878491543,-1.8879365242700323,-0.4493446528780646,-0.2718429854374109,0.030154076963963567,0.4367638136710385,2.1753772994250564,0.26662694861691905,-1.0836100073162036,0.6260386046344093,-0.713851775148906,-1.4191083207598825,-1.1180453862559978,0.8734320058944846,-2.2004175101748116,-1.1926349363396194,0.3313578023771484,0.2522351080780853,0.25026474929390125,0.0028170522775844225,1.466099186882534,0.7763208522349369,-1.0415366754361126,0.44275527451853913,-0.5324423044553422,2.3279330552572497,-2.163022328002394,0.29450996158497283,-0.3431723803499137,1.7811227960954812,0.6908103604722226,-0.02471241026964618,0.38751229172740437,0.6461253897762618,-0.589829679468334,0.7135053425517931,-0.7855453119010027,-0.1564677802330394,-0.8495640704511143,0.11051516167517919,0.9229229508504068,-0.7840358317812287,-1.1580247840665796,-0.3567486581783062,0.1127952687699155,-1.3185405013423048,0.7935327769357498,-0.9662191652391796,-2.225067148833381,-0.24461119455329608,-1.3644802638541214,-0.8316754260459308,1.0599601657802187,0.07080669599720107,0.010840889976449799,-1.2203282106315,1.045883399275506,0.32742394072493686,-0.8996645384186546,1.4460928709046836,-0.11159112441500028,-0.6303106465538019,-0.5109716344094033,-0.15196949058615827,0.8968898259703129,-0.3943661956634319,-0.5769395457773772,0.8984300479605223,-0.41942643038811006,0.945694619458818,0.003716491021983702,-1.3795509854518055,-0.804444231184099,0.6014767910613877,1.2826035668405689,0.9259402531962928,-1.013302644314155,1.8473740782503243,0.5384045725219875,-0.28508607323706864,1.0674224120784808,-0.6141282783655104,0.40196284563009943,0.23003593379732742,1.9425995726528822,0.4441587816109861,1.041036681693143,0.1310449512957622,0.04042371403937703,-0.07186769073894032,0.4328097205148899,-1.460141083226231,-0.6697610162492831,-0.16428116736768808,-0.006905303465183858,0.50306763757206,-1.1288322605856196,0.12433306403961913,0.5507924547772013,-0.4442766339957933,-0.22757070479125263,-0.7037666243853526,0.3451614123867384,-0.5882872023015157,-0.2675415368432656,1.0053686979625984,0.021331183548100503,-0.3545376277689775
0.7620939880381833,0.7079204780327667,-0.28715673778171397,1.5865620165963024,0.6404144710150439,-1.1019013599359637,-0.6764205984090125,-0.2975484593586948,-1.339704497651702,0.165714249383864,0.46076233155248775,1.6080259374958823,0.3781809450998137,-1.9978581429347255,-0.7995378927833126,-0.5090886035999125,-1.3753721098665264,-2.227522033899113,0.4194440588816003,0.06040772321124134,-0.1854847616288846,2.3728668301511733,0.9616109333043888,-0.8338775158288092,-0.48349667600048846,-2.499669155260092,-1.7215341596552596,-0.3738627105686829,-0.41575603346993384,-0.9969971539427571,1.1033750382693204,1.8946217761112651,0.3346390659084517,-0.6334830340622102,0.5710041326236057,0.03651804369400767,2.624655341195912,0.2506885213848459,-0.3293177405329634,1.0385119649326913,-0.5814362086223512,-0.16649413632432986,-1.5737477603718142,0.2824514594596209,-0.014674523576510905,1.5156913513601655,2.951994385402274,-2.021811840610913,-1.3053224147922802,0.013053638555311622,-1.2349789100193467,0.08560802061378849,1.3116211643894542,-0.6664075607528738,0.6061179868379895,0.22656900029567556,-1.1929672392533426,-2.2590245889797504,0.38355052763629877,1.9357303307514477,-0.21384004171827803,1.7970577449542335,1.3725789547271248,0.793941687356697,-0.5761839337149153,-0.35659621759095517,-1.2653358957599916,-0.7614221957460867,0.39454065748844647,-0.3018636940320817,0.6624679054540379,0.4726596037373576,-0.514843325808027,-0.32532333556375564,-0.6599192786760519,-0.5804238141339265,0.7862056254891467,0.979598064626126,0.1495468099780756,1.0182758010238253,0.2509404233900463,0.1660417537546109,1.314756020519552,-0.5156414039981558,0.2636709834792648,-0.6692847973932454,1.027581790693802,0.39994424903558257,-1.8426182268963573,-0.5312750637841787,0.23051300912525194,0.4174875994271426,-0.324370231492243,1.0232623189321453,-1.4345340508450235,-0.4158329726273836,0.23752438879129079,0.026513687164125336,-0.9454930912254219,-0.057256447940603104,1.7713868353512658,-1.377302504650843,-0.5415353589307397,0.8653023527572674,-0.80927187228162,0.6187038082182102,-0.9750044323001338,-0.058058577227231095,-0.9439002544219558,-1.2614753766997233,-0.45326675643908904,-0.6541685081283087,0.1198505111183937,0.6421157158985005,-0.3465586750019737,0.739217490791607,0.17711344241099516,-0.4625006203807814,-0.35007419273712403,1.146374206714218,-0.6721437397895559,-0.8870406091140121,0.07105240343920682,-0.4271049953875842,0.4475628379525827,-0.8293601160039061,0.652774978587455,0.803140668546427,-2.257095836405378,-0.06850716665842979,-1.079635742789525,-0.14443935611982675,-1.4737902709983846,-1.476188456247302,0.28277908859809014,-0.38589581186943195,0.5328138688271349,1.0203972256630438,-2.4252114463540213,-0.19766203383698389,1.4877992342616746
-0.9721462599647269,0.8670761678210026,0.6710475799350952,-0.6307747741527823,0.5793935698200151,-0.024705423079961118,-1.1548307169804013,-0.182025535722214,1.0419923706072316,0.8880358095868588,1.0203866652008906,-1.0966925383897126,0.9392839085423201,0.00858973521334458,0.11784493364439988,0.1362230555952166,-0.8961407586555463,-0.7110191248730079,-0.27534407831142504,0.623603620766516,-1.327270599287241,-2.3040068652929335,-0.5632846437916459,-1.48674714915419,0.46583914454779063,-1.6025702228202756,-0.48558490645670294,2.4320640470486405,-0.09761586389609302,0.2557541961751536,-0.4346099129940499,1.933708508754036,0.12085245932244533,0.09759549210086328,-0.09340943162479463,0.6960512361061583,-0.3014951763457966,1.5751641719782046,1.7269643774668997,-0.7803561784086622,0.17704132545118217,-0.8097017086390191,-1.7555781483579447,-1.7682228976436838,-0.4019353779151044,-0.8067525577458659,-0.11236445520585973,1.004109341643393,-1.7894938251832186,0.25521953075417664,0.5807553710530398,-0.900620777638414,0.0841332942618812,-1.2906222779178926,-0.9783693277923515,-0.6392164146420966,1.8511143275818853,0.35286269491970285,1.2025228368783432,0.18951586132591602,0.25413746252778824,0.5040579060813286,0.48304088605322726,-0.5079161188058728,0.7550465635096786,0.14271019148275227,-0.8736018757007644,-0.4107695225713028,-1.9398413494244124,-0.5540441689235222,1.0294852358184994,0.47376879194418253,1.191687408278879,0.7542006339804409,0.24074578479328468,-2.025754053049385,-1.0914855291698573,1.2165616166784516,1.2450940036947187,-0.39363866718230894,1.7717724801776362,0.4285116425831157,0.8689053741623375,0.004868273199838515,-1.8734602267290146,1.3548752183724706,0.44736712273357815,-0.9315788288555548,0.10802844939863628,0.13047797655341278,1.1243271320152586,1.135269260368502,-0.9668287785278027,-1.7847172258077033,0.5682197941238077,0.4123099194749445,-1.0615383614123401,-1.6458330994469808,0.6145118125156124,0.2873616499611953,0.898561293406405,0.4980861656037897,0.9674456956826083,-1.3248279351420762,-1.0409132432837427,-0.11146793367650597,-1.2863697218517156,-0.6489691342147014,0.1307911110922324,0.7871218431892237,-0.799072909096332,0.6340172336031707,0.7262774847749861,-0.8967086966438477,-0.4032691336398364,-0.3265149077945395,0.7565954322671913,-0.9726622505563223,1.3186959782968095,1.7888151727051633,1.2372304143276946,-0.8707638442805532,0.6077485750779378,0.9339131840682483,0.8750803061309032,0.9711374433978496,-1.1431503713171196,0.09840260717049704,0.7442865091236502,-0.7079780048880038,-1.3527018962235215,0.27051731164096365,0.15105284814534328,-2.6116521925095344,-2.0343415815532477,0.4010957237827352,2.0641566109513194,-0.9623538783778994,-0.441836571912492,-1.8962480976796317,-0.5902613132016837
0.501343854238044,-0.8376696290450434,0.9904973144312798,-1.0931765113834568,-0.47311139489409065,2.5306643539301965,-0.8382291458017014,-1.482527397555721,0.5500723559526287,0.26959540068162396,-0.8658225368362957,1.0514675589289828,-0.7164189773722757,0.8109624444536102,0.5125685685074352,-1.207169461127,1.9546545721438535,-1.126634879266542,0.6194654288706053,1.8811746444426611,-0.3802984166914582,-0.30561691676829644,-0.16840938233122915,2.2873755520707584,-0.9581242849752368,0.9281477719514507,-0.9616867507318458,0.7174814680413474,-2.803028872973076,1.577648986160635,1.103962201101243,0.3545116687960847,0.3544652286589895,-0.3790004245789557,-0.48057985520648266,-0.8691233911425855,0.1676181809488084,-1.0595370993242184,0.5184926477053594,0.8184239059354915,0.6311582628867204,0.6469037845939887,0.43718878530892213,-1.2164626124373776,-2.0826416445361002,-0.6061637578567878,0.9016885215840637,-0.7926453868443003,-0.26353657939538844,-0.25707059525654896,0.013721821255477978,1.1106739110735881,-0.985271362738311,1.3094542947928358,-0.0780293253443556,-1.0602510256077848,-0.4034541759213092,0.6556385500075196,-0.1968357228581727,0.35489495066404864,-0.310841625855213,0.380175854767952,-1.0311800671723772,0.6485006423187349,0.9572640348119646,-1.4241801543104127,-0.5139735847021204,-0.0739955980215144,1.4781563320344349,-0.8396968003294109,0.7412359978491532,1.4081503630257861,0.6056270449706689,0.05267244115971144,0.12383770235827574,0.8548183842732134,-0.3765378235710854,-1.037434385634841,0.9278612702123235,0.4762104478360903,-0.9287079497575493,-0.18960283389101393,-0.1481203979867989,-1.5806761896676447,1.6028566781826386,2.1908675203956887,-1.1826516229355915,-0.44723085431315507,-1.1312478521995606,-1.3599189894202175,0.666628292344685,0.14636357472656214,-1.6561449101450951,0.6982591726669112,0.5725956402781862,0.25682052159424357,1.6549306098479886,1.1592358364364876,-0.49581528934590124,0.151016486815965,2.2312345282116985,2.288964574993444,-1.2073161832938482,1.559544833379432,-0.4084505203648655,-0.6550963744625663,1.7434563035400752,2.0623703368406177,-0.4905635563824485,1.3342806902774722,-0.32166609658504974,0.259495583382041,-0.6150302523887862,-2.0284335246443086,-0.6811609445593421,0.17654488824219425,-1.3282172001680261,-1.6847191447358063,0.4512604646881892,-0.5905768845167817,-2.8252793320008855,1.5325665208865429,0.07689964631975212,-0.3400532826098317,-0.9943056011847412,-0.13589653343444372,0.7615231618789664,0.17187086319480294,-0.109821552776197,0.878623219654464,-0.6963210261094968,-0.9305407088607809,1.90439455022066,-1.7975836090220991,0.98044378449489,0.022183473876507185,-1.0276417497473058,0.6628497423838163,0.6330794298257162,0.5982810887123722,-0.22509583291717566
0.7776864200013636,0.7477590678544547,0.2150384306938424,-0.8291115447973929,0.6989356705367856,-0.385730831128608,0.5654598136146819,0.2154383048379406,0.281505202911013,1.0997466969743421,1.3499390960537094,-1.7255879972624286,-0.7365737881250624,0.4523640652328117,0.7176245042601994,-0.19127441005315127,-0.8694100848743993,-2.0757364377358996,1.2250597605557059,0.40828652839390145,0.6754637381706108,0.7896842455870036,-0.0705526151834983,0.7620022143308759,1.0595858721970033,-0.24354055059316018,1.9076704070020098,0.7736938766693351,0.9519422978545918,0.5795942695856875,0.3862075218891319,-0.15309183420607053,-0.7621540362353136,0.008010874151797395,-0.10683899616748291,-2.4061123028366,-0.0842893089178172,0.25459285166432455,-1.2884055018339349,-0.9236903167467936,-2.098928233956714,-1.3818779828890864,0.1261289492527211,-0.45387961526814047,-1.230950911871201,0.25065424519350527,0.36510303029097213,-0.48520909406849744,1.438599625266327,-1.0938989905760383,-0.7765108527518304,-0.16937382953842436,-1.1075082219529915,0.7901709291961965,-1.4473434202096602,-1.2794806634943359,-1.6852942452265847,0.6500067222277003,1.202661421069598,-0.14238208581990996,0.5208836360697738,-0.6877822953209971,0.1786877418013486,1.0476467930895859,-1.6548426751703271,1.8062172460250312,-2.5007603531855027,0.5869219885784986,1.954458352285789,-1.669163521053593,-0.6146092705666433,0.29843001818634796,-0.5073275148086758,-1.1340348089425447,0.44897262257510145,-0.052736481097968614,1.6902837418525856,-0.22931116409214386,-0.6552811313089285,-0.17815923612805137,1.1341179968069601,-0.43067085396840726,0.6011448560753959,0.25549960172711117,0.11035802210164082,-0.8817829912101749,-0.4788838859508087,0.6415587580887158,0.40134426115707095,0.05967742376205017,0.1277455928382587,0.6992457844916593,-0.611828437882056,-0.5966865651363203,0.6097631457575323,-0.8603212027598427,-0.2646366381099702,2.500002803997151,1.118836480093085,-0.11995970808072104,0.2658816403335346,-1.201356566673164,1.1005240092616146,1.2138055709908624,0.027245261549065914,-1.9789801424456845,0.7410375517331492,1.173920262882415,0.3563194002691688,-2.4583928178026424,-1.8697731094794359,-0.05732373903649602,0.1747876544436932,0.12099779995252238,-0.14034899822107882,-0.4816853398256217,-0.24278460846835526,0.13934688259474104,-0.9625198754698058,-0.3562341000269475,0.3768664655335521,2.547689441399054,0.6284234477653603,-0.4580195369738013,2.3745681793151365,-0.8215185406784584,-0.17006414864209785,-0.6231302092733776,-0.6033845760188564,-0.4432789324162939,-1.0278359940282018,0.3226899685773052,-0.3640127425385813,0.2851576433286971,-1.3964992635580307,0.03880507021705678,0.5642024597232015,-0.8110740333219119,-0.31622737324885575,-1.8843752589768108,-0.4581093426553923
-0.7651137802849144,-0.896393324394406,-0.36693643359764333,0.04361160310983249,0.8336873358678247,-0.4440684459524188,1.3662960209387567,1.6904956639956539,-0.31308271871231574,0.34663113445602217,0.12994228367382005,-0.41592211433329423,-0.32861605031578595,-0.4893386736027894,-0.7734758178922942,0.7672199029156385,1.6108964273668247,-0.6302766633844894,-0.3736318787877624,-1.0722402054661382,1.8609213883411684,0.16401647395855767,-0.276149868654234,-0.9563427410238045,-0.45121842285971564,-1.3693286788480667,-0.8440547079291757,0.9526955853260941,0.7577115863734716,-0.08836337180811175,-0.6026297746660831,0.5735048300177908,0.30011801448258,-0.5820245261036594,0.4648782308564854,-1.3927170177235246,0.8397651279697433,-1.4451413359242995,1.007144184547566,-0.9081958083039218,1.3385997716974884,-0.7729239441747144,-2.1617546782252455,0.7569371514543666,-0.02654438674557312,0.3386334906710707,1.079976361281138,-0.0878033499098467,-0.2747562553063274,-0.5059818384244402,0.25952848102860243,-1.864954020520584,-1.276564830942934,0.4696886735306001,-1.3806662614993144,2.172920054884667,-0.5882253850927956,0.203174451753509,1.0898597485051194,0.10050945074062079,0.9106954215182619,0.4739901202569129,-1.7156637379994693,-0.10956725844307935,-1.0028810662527659,0.9005906200165745,0.1337033102004277,-1.4993886629470725,0.40527966567563417,0.4276503844991948,0.5299365141367671,2.4687424384640964,1.5819722620405514,-1.2977060019309399,2.1303511380237046,1.0246594665471902,1.354536293129431,0.45583396744371624,1.1898127073659956,0.5040717772367128,0.7386582648417919,-1.77547895448506,0.11146023639851513,-0.44969335359120705,-0.510177763694017,-0.7521448680179044,1.737208104710697,1.5222557182948684,0.35062668011979875,-0.0010301510372893348,-1.3053295432359433,0.8566245712098786,1.0810470143453428,1.4880901120470333,0.6745314824242373,-2.1252812103882617,-0.24308663947115686,0.4944727902435967,-1.6462358072679173,0.5934999487031284,-0.7364110687686287,-0.6992288591933625,1.2235038233953115,1.6462069723126667,-0.7499617689313007,-1.617704761397415,0.6887312970473183,-1.0674442063318894,0.23630953800773502,1.0660490354859686,0.7562280775408105,0.31531313331426747,1.4860940650114225,-0.300640444202111,0.21837299172520144,0.587075852449852,0.5091205533944692,-2.236413866532949,0.11707167251315781,-0.5031775607023086,0.3219557694455651,-0.3921650720297664,1.109833456055923,1.3278234436359746,0.31984384165810126,0.4502115129373516,-1.0468228560582589,0.39824419106893294,-1.3008510688362422,-0.8245410621970246,-0.1735404301692853,-0.36915642394802267,1.3585647343015603,0.4637545477352991,0.8400052865249986,2.2548093865941587,-0.8458264714950123,-0.34800832453651914,-1.1429144717219544,0.7386058589836569,-0.3473587427905112
-0.2019896073780622,0.2384246600991803,-0.16415464837751015,0.7305911184112336,0.8197593503650193,0.18375307598032198,-0.3959890667556347,-1.2865063042768228,-1.3853248645789609,-1.3291421711926439,-1.2541769606984294,0.4374900555982231,-0.3042389227709018,-1.1925078114825767,-0.1451428324811436,0.24667727427435485,-0.23970079404289793,-0.20840258552847277,0.49688725071237666,0.9215863742857308,0.2085703064744532,0.004799479246045316,-0.6097357720674057,1.7886157239802252,-0.17923417682941803,1.0223646831770064,0.0777358979648164,-0.6586722862580624,1.1895154342717051,-0.19830908114605877,0.3613273693269589,0.4799337646216526,-0.8660935542312701,0.6355575122208066,0.4921437865779649,0.7966387189894574,-0.28991451422460035,0.11756658013988898,-0.5632202965562432,0.1371185312844024,-1.2035233883685765,1.475263880843287,-1.274110856374457,0.3157560873809701,1.5284844123460166,0.7026785796551096,0.6811129259447503,0.6697127552474522,-0.1746112282609921,-1.5672170681809314,-0.7190825247020449,-0.6558159142767193,2.195773470282632,1.5312356853065516,-0.10516161300432542,0.4012134268431645,1.1972056072016233,-1.58811675984531,-1.0599027330286992,1.6869290186576897,1.1871690619696342,-0.5891048114742277,1.3512495229201769,0.06946418381300938,0.043446039179348535,0.247760992662861,-0.3317504725523344,-1.2175971463588315,0.9148965717379706,-1.4978249210481884,-0.9808565940604047,1.153065580201795,2.7391209198224558,0.8378091647503048,-0.6743128765353265,0.428106485405347,1.1519965641639363,-1.436573852989613,0.2562531263464012,-2.393894002893492,-1.5606534251186592,-0.6395624656858101,-1.2516216992288305,-0.5488443753732646,-0.14044041971080265,1.367996439523403,-0.4392372685561371,-0.24423702066807407,-0.0470113208593489,0.499448573814607,0.1989099022912268,-1.4315628699942697,0.2661155263674529,-1.5118965450952528,0.6682352378233609,0.8323278119891402,0.6567557756500165,0.21411128529649565,-0.02257828397297892,-0.8265978987165284,1.0005445655052825,-1.459612220416859,-0.8051500816240326,-1.418492804119143,0.20244094395827805,-0.9647750132664197,0.23131622063865911,-1.3298963001863133,-1.7063169593518548,-0.4655053398207089,1.4363523912629172,0.24800571104188385,0.7569476248221217,-1.0781967955927063,-0.8838915681341027,0.33667380491986154,0.2365648806582081,0.09506270614237006,-2.399271129671976,-2.2723697358335073,0.22974109636901147,1.0570485946218584,0.5319017546643758,-0.7290943187160983,0.08686498788416816,-0.7061170568918662,-0.09956726393948666,-1.3917858409203234,-0.7900929401832184,0.1801211482634103,-1.0673522253726135,0.7954708061649741,2.280589509646049,0.45238818263469305,-0.03948642961027327,1.5712638522140736,-0.8033325372276459,0.5389791637312512,2.4665965170786297,-1.1370065257183117,-2.728204748096092
-0.833807861028108,1.3430957669898336,0.07555696753400915,0.29845958826457614,0.9104197452018808,0.5729320876104695,-0.009563266359659732,-1.3032854176883364,0.19902975630649172,0.5010311485496605,-0.18059080911031558,0.8830178059014595,0.31024752501889735,1.6093319686750065,0.0075605761283776395,-0.882751130175814,0.6991161128079247,0.36865604466281887,2.1228921956658717,-1.4557049404449962,-0.4347616563012524,0.7640923205287194,-0.14727025140168265,0.7485004215281177,-0.7957423739405856,2.071657413645397,0.3676096917952891,-1.362850250566617,-1.3024609228893822,0.49333464909650143,-1.6025438278401423,0.37197027109595066,-0.32302797322431587,-0.07130941349481396,0.06471365913318457,-0.012511003602590581,-1.5708026084332434,-0.23934627748753237,0.7942480471414629,1.9693177636985193,-0.05808228345067742,0.7166772758693294,1.093850334495354,0.8239028019878532,0.5720620348112776,0.7621219550947465,-0.1677895860430076,-0.8245141112129688,0.48004590755951,-1.0442224481050957,-0.7031489272717486,-2.6747319811496935,-0.876518343849684,0.7983110603971916,-0.38021123970578985,-0.44726741217818905,-2.9242485124220945,-1.4430522440083067,0.6655370473701707,0.08286588076168884,0.9155620027398108,-1.3197244207595245,0.5664556261795044,-0.3780124462011509,0.035176646491512205,-1.2362875272781864,-0.19793161299782275,1.3522891171691336,0.5595796503518662,0.3485137749841755,-0.4692288348757651,0.7100417709516459,0.07117321347469042,-0.08105210200811375,-1.354253376449587,-0.22513471385378386,-0.8881618211853342,2.6202423548722527,-2.3461982181859176,0.1900481646600991,-0.022015696984924144,-0.8386046909562909,1.3423075368187471,-0.11318445680651772,0.19392229790841212,-0.8771308723997426,0.715056740141224,-0.9535584926164961,0.27209516823699476,0.12920052956079184,0.30115158166225375,-1.416921964864917,0.22237519377202794,-0.507581088915562,-0.9163877144322884,-0.17007824507949668,-1.4600544387108279,1.475967183090919,-0.30005429308779336,-0.0016637926336219957,-0.33203303315142896,0.10845175765558049,-0.10846552580771356,2.506071349539409,1.315489610917927,1.383050774443259,0.7136760956604046,-0.19092404892057901,-0.3741823224237701,-0.09131094619973681,-0.9637361525485938,-1.8305669927698394,-0.6845492939307996,1.0529151104819618,-1.7459080080367795,1.8902917969941644,1.6783346016023948,-1.662686565032143,-0.802465980428901,-1.2271686369777237,1.213286930962855,-1.4000141039214489,-1.7034073060192783,-2.0751438510328746,0.5764169351890569,0.6258688282004472,-0.6138150048836636,-1.1866204406766119,-1.2165646379394266,0.055077614083794406,2.52465611615198,0.5779013520539233,-0.18726476248127272,0.042650373007321454,-0.2721026535098736,0.7702678889122352,0.9688854993003713,-1.1585579323097692,0.35587631820509724,2.7703107853496394,-0.27360076295811314
0.3133088932132922,0.03381044515935214,-0.9480381163176429,-1.3559816291418938,0.37262174856422947,0.4207257056378358,-1.559708491869657,1.8474479068414973,-0.847525563857472,1.6360589192246415,0.3449138317458245,-0.9942536000046109,-0.07327634040821793,0.6309924506950876,0.9307220030677882,0.2605677345986214,-1.9317518771481852,0.7365778204936781,0.6026221480505164,-1.0998204591139862,0.2241166571209084,0.9740867422499053,-0.5577009624179596,0.682395932812138,2.159693172663756,0.7290348875837263,-2.016222010767879,-0.07298323717888731,1.7061612768903263,0.7908325211341658,0.22080874888912952,-1.088259526307367,0.5444278988349748,-0.2949949468186621,2.335134652377788,-1.908011411090932,-0.39722908672156165,-0.2764638793022453,0.8754169314703126,-1.047211380993872,-0.21278333362693952,-0.4185742625346903,-1.4296139516650135,0.26612159241133987,1.1363371117721635,-0.9067257611216696,1.6435546330524577,0.06471458010215035,-1.1580916607517167,-0.8166184829398697,-0.45447593309266143,1.9458929612378388,-0.3861404945847774,-0.20930219530863223,0.06463070686325782,-0.2647146874617452,-0.058055665255303056,-0.18241451905719894,2.2489866328515293,-0.14744915053696483,-1.3829500788063922,0.8056098234421694,0.9416393866909784,0.7927950495993391,-0.4344212760370038,-1.3249527323579293,0.40911331913953874,1.5848963351101415,1.0004727342566169,0.5467091641968665,1.9213930085659408,1.0676550046084032,-0.8372366200700561,-1.2355106926096164,-0.7036690769344628,0.8150899432050576,0.25944678794623544,-0.683440009340457,0.5339558198040888,-0.3385358815858533,0.2199791680977837,-0.30096089324242614,-0.1474662924159464,-0.9765987472691336,0.0202782778169282,-0.2672020820260522,-1.2010575895056284,1.2201448136679258,0.36745998744884834,-0.36947910156435126,1.0209526495750738,0.8832145709724553,-1.360984981366553,0.5437195994940862,-0.4117115383550177,-0.3554302787939446,1.1561712296462083,0.650011171694974,-1.258601860550192,0.09245216598324137,0.9109175576257112,1.937378238356611,0.03725065807076312,1.2130028216767632,-1.6724347169286673,1.068267743470127,-0.44542903719022536,-2.024472209956553,-0.05771890331183431,0.32846775176358106,-0.12379633840389626,0.8705391084657184,0.12231645360571641,0.29275172539323,-1.092628358288903,0.47155851965395745,0.292446109533004,0.1255415944704492,0.8527676167372318,-0.9474325318745318,0.001958949825970484,2.068539643209424,-0.4545807211276528,1.8730271287003746,1.836245222793373,-0.3038367812635418,0.557441905484074,0.8230996171705349,-1.0046663558937885,-0.3523644437280897,-0.055804003729427766,-0.9038660626088024,-0.24711770321587284,-0.8721724792775284,-0.8491542004415662,-0.15830847570591444,-0.38486158513486335,-2.3094927592179837,-0.5155201930879627,0.2296297761604483,0.15203411910853568
1.2769998981529793,-0.1578259007870434,1.5327083310076433,-0.551716360665139,0.3982383185572962,0.6993552668308799,0.9429840553066364,0.31519737873967574,-1.0437531844091137,0.46021141099085133,0.34768751563358313,0.7335371334098097,-0.4378156556017476,-0.5715856271276778,0.25388314279811963,0.15661544144341977,0.8356192891841718,-0.2031843221178846,1.904531884748634,0.02636474232831624,0.06455480379042468,1.7477973782774672,-0.5845898830014459,-0.6033092333775075,1.2911556456815387,0.14561407791406156,-0.19644002765906163,-0.3583107717851535,-0.0889462012248344,-0.833188203426506,0.11537408066934955,0.17767952156402067,0.607029277682288,0.7793883938136833,-1.6323130849983345,0.7109972449969036,-0.282596811114981,-0.45270105285577417,-1.371800347298627,1.130581546720446,-0.38952468718019223,2.237223052278563,-0.7756777198989759,-0.031438423712232384,0.4649318023158658,-0.6616554005818119,1.298045456881402,0.21696169474356117,1.3103590524943713,1.4693796410983433,-0.4475307079414592,1.2075438573366735,0.5896299981387803,0.3417496834492779,-0.0648069722467112,1.423195943294059,0.6973053261287456,0.09489012568929313,0.3448606292995278,0.24914197328119828,1.3710896848805387,0.4667129590695229,-0.22529021783005304,-0.7461504581813716,-0.19049003371979553,0.8270234279666856,0.49878282036226307,-0.24585920703947028,-0.9808020947224669,0.20893192734275234,0.2498932577088039,-1.0385802233934063,0.09398483352376924,-1.2128253926595314,-2.2501441730837812,1.0047749141107303,0.2662209539177874,1.719935866030764,0.08386899190014739,-1.635045102501838,-0.7475039713593105,0.8361608312710347,1.0761430036150081,-0.9630179972902121,2.8189885283245535,1.315210733202606,0.8033875834680865,-2.125413048190211,-0.44570300192738943,0.01417032214026318,-0.00996050998297701,-1.0349851985205234,0.1679870750867537,0.1288835173248834,-1.3361778793759038,2.4316045721996757,0.8459930644922613,-1.4510935924146615,0.03566688137585387,0.3583735771709161,1.0071134614702353,0.2664947063494068,-0.4059873178403468,1.3699286967557456,0.5715230596574368,2.033857158379211,-0.4896763503692173,-0.34197169075357164,0.21730087335635806,-0.4172142794492008,1.8229245570975523,-0.2269607832638859,0.2814535496110024,0.015537392663415282,-2.2629999831720604,-0.5399019980999052,0.13780350358673152,0.12274828496638747,-1.0116615231051411,1.3949348429425212,-0.219739938583852,1.1763842286358877,0.2954495228556857,-0.4276792139017269,1.0780054011620128,0.0591255285800831,0.07916584010883226,0.9641579772699665,-0.26251405915287157,-1.018552347125365,1.0710254384556688,1.7726598335147876,2.5738774974202037,1.5601609091313438,-2.2457757958029516,1.5943008994507248,1.0831962562493025,-1.330888513097308,1.6190007285988337,1.3015438879223247,-1.967121098239128
-1.034787495117486,0.9407407733605372,0.35577034316880723,-0.9210192095695683,0.2270850387474322,-0.5333434763117704,0.6326289099937666,-0.5701232997197706,-0.018203585270335852,0.42408287372992126,-1.7485760029333546,0.3346992908031601,-0.073741657508623,0.7657724001011849,-0.32492456288660554,0.24426243452315596,-0.021663760976308167,0.7951735444289737,-0.9901664395655936,-1.549098687606198,-0.9924634541440126,-1.4866430673162419,1.6816663198420239,2.377111381379659,-0.9372812847743656,-0.09901408975804032,-1.7552951747697045,2.1835036721839844,-0.6932978593306015,0.30138150160885374,0.6074777280799932,-0.2150446963676491,-0.10547520201478132,-0.18113733183547207,0.011494634022074703,1.265516091662385,-1.1699788759887604,-0.02219621338603386,0.8305606963911843,-0.5949706972632182,1.66627601574134,-1.7326758450989364,-0.3580751192413954,-0.32575696241036456,-0.8682720161233735,1.314575186133915,-0.12407543094163033,-1.7564239414921414,2.6086915669937403,-0.4708949956360295,0.6006597704111699,-1.0463728526247165,-0.9249460908882281,1.8171675699393923,-0.26481714040953314,-0.6794084913222153,0.3131327178933075,-1.8175494910763506,-0.5448119575390291,0.4316023566809342,-1.5100632500534399,0.11851454132733176,0.2970965006752008,2.418930225176806,0.7403086350048942,0.9590984568510471,-0.3023947973163517,-0.9405760261549214,1.4884723575414724,-0.6184933680100374,-0.5632169966108199,0.06630170332738984,-1.2504655413411805,-0.22373103220992305,-1.081993618784724,-0.45142681078194485,1.9917275453969137,-0.3992482102056904,0.8249003273072091,0.38041814633895477,1.01899652454637,0.6494293443256042,0.356144796349914,-2.3205562498905454,-0.7138454369564355,1.5732118559946326,-1.0588622635653284,0.40665927548591574,1.3337499833404463,2.8046916185101227,1.0799800992875244,-1.515330209954225,0.49672231271806977,0.11941415591604052,-1.890588969087042,-0.3359512278577866,-0.19363450611639677,0.4442363784929792,0.44320683217622553,0.38590287148347086,-0.6780933691501463,0.03809185395336936,-0.9437802265066887,-1.964224307990069,1.5972116133734202,-0.2254734286807861,0.06932884402195924,-0.10355083695077152,-1.2182325803644491,-1.0432131310746608,-0.5307608129159053,0.46513205980712974,1.4901364873008944,0.2661132432619327,0.4842331701899908,-1.1410853175885811,-0.07448803505761444,0.22290011159021367,0.42692473401731185,1.64728610826797,-0.8411985633269452,-0.8885140093204653,-0.009731336453277263,-0.24240535027574286,0.012927690626537246,1.0142744720017156,1.0782208096793475,1.8258580852698725,-0.39980233076013566,-1.4219033897957778,-0.2102808717701939,-0.5694810940511184,0.42187187280453314,0.19694857693062875,-0.5352550253072086,-0.36983896039142244,-1.1499897193737778,0.038423997206092735,-1.3465815022694976,1.0062511091930086,0.6717878286313951
-0.013403926702152225,0.3898537041333101,0.14692897129944035,-1.3770329809875033,1.272689450189662,-1.3187350891472265,-0.8080374419848273,-2.1027657594319007,1.7660564737220623,1.6858862165444093,0.7028975743519118,-1.1288622907607195,-1.2506055417075201,-0.2148915586764578,-3.0218382754254733,-0.24261861708985163,0.17493102010243922,-1.148969279483604,-0.3988491528442325,-0.4856841719669585,-0.6331392435985228,2.0757569267133587,-0.16023407675072573,0.068581810554058,0.15606578165215476,0.09175297909155529,-2.094977067549826,1.4808101700965755,-1.6243132398300009,-0.9291240622663793,-0.6457294433818007,-1.7830021906924756,-0.4787902005971253,2.0230419271870894,1.2451178485798928,-0.2881168828979231,0.16258216607201767,-1.698751544529738,-0.37712936398752994,-0.9829968940712569,-0.652175022305443,0.053894723559811085,0.44474931227333153,-0.2355679122407266,-0.9527655628762187,0.5438723054075663,-0.167804737403766,-0.05143279567210255,0.583986917564064,1.1549642723263798,-0.8419401664576035,1.2111688464291739,0.5851860244735918,-2.338229306454839,0.9611467262827442,0.05595101788759307,-1.2481692476681356,-1.0985904261790829,0.43505914268239265,0.4582729863565403,-1.665839846838568,0.018857297721442977,-0.8465356134361549,0.3244921385317873,0.9315091418909653,1.3053515194747325,2.187710934974776,0.18602067856183907,-0.28599764934695304,-0.4193123705305151,-0.6695967310530871,0.25698906813039496,-0.6096094002303183,-0.4832222335627994,0.15028717936075164,1.0122849980714905,-0.3141413888474529,-1.94811239252081,1.1044294289833754,0.8186642825215776,1.1979106068087286,1.0769628531819553,-0.1433554882182189,-0.32789308396566896,-0.2329031089126816,-1.4002831648561516,1.3882173704808538,-0.5275446021313407,0.5506010007317151,-1.0705281224313083,-1.6350800128417349,-0.6227974479724789,0.12118109983531179,-0.44745393229593494,-1.5838517211625711,-0.7456898097923795,1.6115421086034616,0.42762199392047384,1.0554864200572949,0.5801316168575059,0.8215436749395627,0.9344466792742894,0.6309423413115735,0.6355094700142568,-0.939659015898981,1.3693463560468147,-2.427705494224461,0.45244048928951774,-0.9188794491585891,0.223359757475494,1.5714948891719216,-0.3978220471972544,1.1784397886699842,1.380991973010232,-0.975682343257271,-1.0399822013446085,-0.6997995744798182,0.6565146761518488,-0.7919479112368428,-0.3985841385891248,-0.41330765704008765,-0.11387398894233329,-0.5825863666595631,-0.07908970541645903,1.5167642844251832,-1.0152698056673355,-0.2132835465206061,-0.2812526627298541,1.5648111333297303,-0.8368723843650616,2.4217597474981107,-0.19763057164149891,0.2392405524887031,1.4862740298730317,-0.3885098005257966,0.8937420555864023,0.2762719268120974,0.14503471205899623,1.994340320679236,0.22272379931055486,-0.32155714658692824
0.2954697938243736,-0.018125389926248642,0.9172152632816194,0.7178316267378704,-0.9723370159701975,-0.4023644472451315,-0.5216925432777767,1.2500699901433967,-0.7725804627719262,1.4818899991489707,-1.3155226244984222,-1.6838072181000971,-0.05143725311839057,0.9394427639104944,0.2948903449278671,-0.9308648373680618,-0.211917353995597,1.6456909025989281,0.13102634554323453,-0.6522729767493777,-1.6469995049278507,0.3131432031790606,0.7156663203474373,2.4523636041101877,-0.7787869644826465,-1.1488019908054594,1.0424332487196724,0.567001199198161,0.006999889181338946,-2.245482446629809,-0.10136443503729986,0.21930455805633195,0.5745862196910655,1.273105382931599,-0.449871985283954,-0.006855321361747127,0.016292848110536048,-1.2117315499334382,-0.17112555289889034,-1.4423351942907163,0.7013288111387478,0.16032750145795793,-0.8115620365996563,1.0085483873464114,-0.9191099427684963,-1.504738477336268,-0.26505885920011535,-0.046590223436183784,-0.916375981201171,-1.2666098097462752,0.3296908978270494,0.42372193557000787,-0.129049103890306,1.2106878068749038,1.1528946808831977,-1.2300292747008954,1.488484976384013,0.15226275199244615,-0.7737421256455376,0.8659480047828748,-0.5069327814255773,0.2664813098520398,0.41264787394112296,-0.3136376232458379,0.043505023916937925,-0.0028400734293236047,-0.7411842070531812,-0.7382205822648195,0.25223102594389807,0.3587647601748524,1.1444545634280547,-0.9891179225593102,0.9235197318821149,0.9007676200042304,0.5049922348518969,-1.3168642754985924,-1.7997144531065628,-0.718570765440852,1.9909672810253836,0.29496127069033806,0.8540240571379931,-1.613791216924208,0.12937045303513417,-0.6695172789831589,0.3967784560466905,2.5761900327277028,-0.5591077803955885,-1.0335479318341034,1.4321476922411664,-1.3234472004463822,-0.6451303337841694,-0.24666397600638343,0.4131762276236624,-0.9149213705034227,0.008230614001549171,1.9766189443842634,-0.42543300892906966,-0.0733425418222894,0.7154606069039376,1.3067450902262239,1.178844169158486,1.8812100465776813,-2.2236250025123896,-0.17979603802195152,0.7532608962270302,0.17040197612141705,0.2705802936308111,1.4634655711008142,1.2053477071594643,-2.3272350615235577,-0.6075675590176152,0.8088084899795425,-0.6474896811149053,-0.9448245337946367,0.365975467763072,1.82419177280853,-1.0487147188679968,-0.7883288196605678,1.2920371926961407,-2.11377539828321,-0.6460936347377608,0.6821674149880376,1.3765154127002073,0.014207173916137947,-0.4333005976950255,0.41842569726706874,-0.2099235889785068,0.2898648798142868,-0.05167370388067582,-1.2906637643887755,0.6185415159223823,0.000968797970399461,-1.2150104599479497,0.4215387668444296,-0.08000288304177999,-0.42817331978783774,-1.7047560609912316,-0.9168780455157364,0.6107344023759015,0.8229736773262214,1.7286525304271119
0.6389880492777885,0.3942714773445265,0.3073348442116619,1.7292084986093461,-2.2099999620824264,0.4433237597259863,0.6511880340543461,-0.8838380464058615,-0.053166157500503755,0.8669994686556394,0.5148391708168313,1.8759857035453795,1.0284555905719421,1.2995810764863707,-0.20751552762529263,-0.9142032171397756,-0.40361057924304294,0.997247032475092,0.47475356702120103,-0.41778325554021406,0.7506191663915849,-0.42855635945032683,1.2583484980612694,-0.5040782777938478,-0.9683256128369938,-0.32365060797804085,-1.0550207492642534,-1.452758393721096,-0.5688580147287893,2.0544410712119086,-0.694278700510584,-0.4942062288253361,0.4091819287360693,0.1107076916744577,-0.017167443961646184,2.129356966833401,-0.4403721801220767,0.33982847036919683,-1.0692979940411422,0.929919103022059,0.360102333102518,0.13030695730167532,-1.2338851485092608,-0.5625107917099453,0.9689637488325455,1.390812586931528,-0.9108771724521624,-0.9072184810226377,0.5395583470958922,0.7363401818851029,-0.39701590577690526,-0.5284253999472825,-0.13784623773577034,1.5342323573608534,0.17139829924621472,0.6435590110892039,0.6723127451707246,0.16204595579451717,0.3750245604981651,-0.9786231374443028,-0.4917840032812451,1.3198436672170581,0.0747040566618677,0.38701917710952494,-0.5724904525016915,-0.403305789176825,-0.6082425476885508,-0.10214283087375878,-0.49887792131454123,1.7911518500426327,-1.540880175355822,0.9542683084526833,-1.1168254060647222,-2.108681397370426,1.240483901445947,0.7493007290795635,1.0328101589047496,-0.6439241346957946,1.6262863188948489,0.2056107995766425,0.5699478556128096,-1.6605758896712066,0.8967213329249389,-0.22436581867581057,1.4462064395432923,-0.4097215098133096,-1.2008701570569922,-1.1935978885085756,-0.3802750764584461,0.3464389626918077,-0.9166767806790678,-0.7679179342415973,-0.5692909870806916,0.15611209289566227,-1.0498711264776794,-0.5405682043147746,0.577336833055167,0.7878359392675882,0.3032262420403424,-1.0897153802838284,0.6516706303311103,-1.510298505439593,-0.4478645021047171,0.8977700638697433,1.0452829127171546,1.397826442537558,0.5870156396682649,0.4640956653026006,-0.6506410843468845,1.2729616188582704,-1.2382131098944769,0.21750626758419112,-0.19874542119372157,0.5660114435558763,-0.2573703153545147,-1.5131771496259172,-0.46397536311538273,0.14297569133351634,-0.7067894684958144,-0.18648210636926535,0.11384069799573682,1.464304291798585,0.22078081747815836,0.15070440979632607,-0.18803614883835157,-0.9470690360781289,1.2349028811543996,-0.8600849134928675,-0.6748539281145984,0.06529352598357335,0.9898265594112261,0.15283861469341156,-1.3800250623908643,-0.17039948703645225,1.2747505769522776,0.5013490194507151,-0.5254799842354891,0.21586167823970837,-1.6081260634787857,-0.15765100313354308,-0.01981882555531924
0.3248554136629432,-0.08879936871079475,-1.908909592802154,-1.343028378552004,0.40223809425572576,1.943345192741838,0.03127019978808863,0.2359572540540338,0.1489289181690734,-1.824631253183469,-1.0537806432268484,-2.50805850888116,-1.0884701419919351,-0.650745927478106,0.4827503138692144,0.15932761951746482,0.9029127819914441,-1.7699136280438748,-0.023893185417836353,-0.7642838558350499,-0.0829867202502521,-0.3597634309715831,0.5937629037231936,0.7724690620548257,0.23963837901900667,1.4939557038770974,0.18396586611935542,0.9813654596492201,0.04290082448095032,1.2496202746036293,-0.30825542241248954,0.31820188212754275,-2.3016584904371586,0.14895285633938582,-0.7669016868814522,1.8297488953130763,-2.162058714963964,0.4950663062674272,0.674201639783303,-0.4014174503961991,-0.9862211171860645,1.1949155507592402,1.9322009731203713,1.1650855384437677,1.4308039638759085,0.5065483869201309,1.4049359789371259,1.9163447220067695,-1.2427373405845146,1.1163147737591506,1.3440099273366712,-0.5051318576733709,-0.14485503561304247,0.7404076472476281,-0.21066316008224495,-0.1820337876954245,0.19204139388939673,-0.7950036667281828,0.12127265879328523,-0.42527951939751935,-0.8282882779891239,1.0116182631153732,-3.1687332159757102,0.9625666100756916,-1.949426594371356,-0.6024935771161343,-0.6378022404346875,-1.0961824519970285,0.5744651150383642,-0.5101391211344719,-0.18953609141684266,-0.3699272309015131,0.8298754292309773,-1.069923424122233,-0.29561416300949384,1.5690229886225797,0.4244274056291051,0.4649694114646661,2.2977727971562176,-0.5374822739133834,-0.3541447691715341,-0.07791695379809682,0.40381047688294325,0.08249306375212598,-1.3739256238398023,0.18396410801872895,0.5378024459523233,0.8687370891818056,1.20313466724366,-1.0995531086500665,0.5077255546924724,-0.7774575021975589,-1.5314085994758404,-1.0104922784592105,-0.028461071392782516,-0.17831400788239804,-0.07977215074258735,0.34949525616740407,-0.5298758144709299,0.60847127633004,0.6566531666321865,0.8355555470758803,-0.7052814286573821,-0.3178816088460404,-0.5790164135499156,-0.5586363817081292,-0.3060908880314224,-1.491901380597992,0.7951583690165362,-0.19019452154139946,0.34793357263850727,-0.8698739112050861,1.1086034450522815,0.7364884706675968,-0.43576640662802885,-0.8483057843879116,0.5939758133323121,-0.23873785468151407,-0.6791444252041291,-0.29473914949014546,-2.9867764438038917,0.38960708282425294,0.5208236188003389,-1.7773443025275362,-1.0668365307724186,-1.1942932868008267,0.7196181820229072,0.459163013895579,-0.7983226789095705,0.05846997779396295,0.9398965169206073,-0.3571399658932875,1.0845433578969388,2.057200727051259,-1.1032600487012307,-1.7891510628561764,0.028510830341227242,-0.4978654607976315,0.5195378564674412,0.4523588974616165,0.16584112817476676
0.1647588858103634,0.1865048667490357,0.38988093543947583,1.7163831775699825,-2.462746718942259,-2.5093674439932245,0.9845196612828662,0.685968895032772,-0.6098971537069597,0.6348600425455376,-0.19455405759743144,0.06517722874345262,0.09943263090691132,1.364815704395798,0.03873441106027154,0.14234978323070818,0.45276855333501104,-0.2499908337846754,0.8954520498416907,-0.5869212237919136,-0.54314600532743,-0.9761162425546182,0.7912127817578012,2.6992544214015597,-0.6924045229916117,-0.24606291702218422,0.21211947900210257,1.3394467620707826,1.0813922667816727,-0.727093867996444,0.9550640442129708,0.5988903691778039,-1.5663564474126748,-0.05052242241929237,0.13353261881158462,0.5415728309869751,0.8320398963784164,0.6694478661735456,-0.023313574159360514,-0.5656494148916109,0.521861298836745,0.48564571888382746,-0.6168246042799413,-1.30508209825137,-0.6997970615400404,2.1011540871889243,-0.26478584278687634,0.8375081886996206,-1.6091660461491384,0.1540062021084872,-1.2980957257806516,1.2008222603580943,0.297269558913924,1.7750927460845798,0.8206647652851511,0.007157763367035375,1.3704298264871526,-0.6397937505117609,-0.9402292142986594,-0.25599464260451016,-0.873811509503457,-0.6595146818636001,0.258215414530507,-0.461486267336094,0.26702568367332935,1.1821745455341357,0.6829065710623522,0.07467849668574374,0.2529197325180378,0.25720980817378714,0.2616047445383124,-0.9059232029587556,-1.035967653254866,1.7412429522125268,-0.24277492757364366,-0.499807586600685,-0.15579143985867122,-0.7423238257222657,-0.09522633130142971,-0.5005665362468417,0.8613889743004579,2.4542390159079877,0.3410537538691089,-0.10535880513038047,0.21197966745244148,2.277590933053715,-0.3240907563796612,0.7487759840635904,1.0682607086584484,-0.5618123764767827,-2.5130699056652035,1.8332917539619644,0.3557223405686078,0.13418096916756084,-1.9319016603446326,-0.5885067261980641,-1.148903155018218,-0.6133980160473333,-0.7702632243404868,0.22601975272916608,-0.1760748931172391,-0.779172572596559,-0.5550915743853657,0.04231250629058392,-0.8779319284611883,0.5347236839811746,-0.14646882621885793,-1.6245074057882734,0.2583320790270349,-0.9655410267132359,0.7430129812684663,0.8491846144704247,1.7051290969465682,-0.3031887310246089,-0.8445766540989355,-0.22317214229150015,0.3010478102732556,1.7589390081588172,0.27191430978229103,-0.6885965583328639,-2.3907966658873594,-1.9055639924730228,0.5319053624117352,-0.7989030855574055,-0.4824950669278097,0.8100297508710148,-1.7767017868144976,-1.211247493131947,-0.37621283354600465,-0.08076216916276846,-0.6833553051861774,0.07900273759169422,1.3613512321563819,-0.07124135073043977,-0.549946585811041,0.2464498229170175,0.6193719393212558,-1.3539110512224477,1.3123397420210638,-0.43503853018312344,-0.07738918368024453
-0.3343415846340854,-0.8966851688784003,0.7628582660589412,0.9458200139059063,-0.2745395576443196,-0.134622308948839,0.5071916248010379,-0.7040330973782111,0.38132238615521413,-0.07514053652315027,-0.023996934158720767,-0.6045746089170664,0.7046840360490859,0.18617885227303116,0.9364285821972024,0.7585584126994414,-2.2805718543971865,-0.43463167278990256,0.7931567869944846,-0.4588445239884207,-0.17431983300255058,-1.0016825812824335,1.2088715682582487,-0.5454256813343549,0.9142252720519041,0.19470170664238517,0.4083468286647265,-0.7280360884405354,-1.4219520921554418,1.152801479292577,-1.0147422457518536,-1.0724918315496912,-1.1080787966736143,-0.9208029843208744,-0.8400110809655472,1.013857982825595,0.17397919961400282,0.25348769797310516,-0.03928301462257893,-0.11907748024193258,-0.955626189850204,-1.3329385300707464,0.8368615326793595,1.5133060218916743,-0.22054041671255134,1.3288539614125057,0.16561353701551657,0.6618075672373187,-3.130387096294567,0.8984386185467845,-0.30566388848477605,-0.5527837337010366,-0.30319420342442327,-0.7553867880783095,0.89278922097688,1.3401610166009,0.2708136007625439,0.632929161115421,-1.1988154913198459,0.2243343840150394,0.35817862264026823,-0.22338430528004533,1.8465944939911638,-0.24172895336348454,0.06339171773449476,0.704558890541919,-0.028589862466747936,1.7986120235084286,-0.8926692961631226,1.8736444808370325,-0.4689820866993569,0.6442093403271686,1.5701657112635161,-0.785398401420175,1.1728388665288496,1.1629350902569535,-0.6049442112332732,-1.2209369443286853,0.6895569309075553,0.05266799784163802,1.1572110078330993,0.4312106737368076,0.9344207414771417,0.4729947779875414,0.1982759423983671,-0.09114503024265505,2.2858433207544517,-0.9284859442286084,-1.2093041526508075,1.2415662690821645,-0.12784191285780777,-1.3795558906673273,1.1971022799485296,-1.0217269298149065,1.2008490147781756,-0.41030962889685246,-1.5713613028740245,-1.3630217597105276,-0.37041466631937847,-1.1663032494602763,0.4768580102116224,-1.1971530518675726,0.34052590545517336,1.2504986828670788,1.1109436767633636,1.4150510108776755,0.3387687845519635,-0.08569641723258575,-1.6772560784112198,-0.8922569439582638,-2.477125595379682,-0.43664499807902263,-0.027070060026867064,0.6848902459835112,0.5384442102287756,-1.4303603357828456,-0.2891436474080748,-0.7392868488463686,0.08865815786353796,-0.1842125784931413,-1.430729057369881,-0.903773053049868,-1.4930133401772645,1.5615823200182675,1.167270716269561,0.902728093134446,2.662824066682426,-1.204286433675272,1.669397028943523,-0.3270446587412474,-0.5729195354393882,-0.009458148679507483,-0.576512709792699,-1.1000296741169666,-0.3712438280960722,0.7990991654835974,0.023322689153270775,1.5906904763059535,0.2233473739834866,1.0910672958846608,0.15168331316721845
2.5710000160845077,-2.961835361313906,1.38460102654821,-0.7393092561671849,0.19862190896431917,0.5785305074694508,-1.0081534856463508,-0.6700103214259004,-0.3729050983130275,-0.923596123157959,-1.4172648162336925,-0.2693839936711922,-0.15285144022719738,0.7154447958923573,0.4639363734036222,-0.9231539089209381,-0.4243994954387474,1.0318907036024507,0.7688485400904627,1.4598204916107347,1.1799042531240551,0.7822652418053716,0.3027896027457367,-0.3949284605914439,1.141459433278152,0.8004079399859546,0.4315927857778557,-2.0249451540091963,-0.6271904579126361,-0.4536514879495145,-1.145283156806406,-1.7069862665471438,-2.246273703350913,0.39029602522084833,0.7141757752504037,-0.9094102357637411,-0.16070400664948267,1.2129303402799998,-0.415144221862637,1.0392214666727375,1.1243538248852396,0.7357413603746304,-0.5384277190785945,-0.4890771365063911,0.988988807517965,0.45949671209763326,1.3129811097171669,-0.6810354402132658,0.9648943803126899,-0.9263655751718335,-0.9091632564607499,-0.5366430513703384,0.6396678149790724,-0.8359888050928964,0.8952875821086143,-0.2920950152418317,-0.3088799415418937,-1.8059641817082637,-1.7498647971065726,-0.1580436702342375,-1.1517079383702273,1.900705853418417,-0.17210355250585568,-1.7121466761498878,-1.3749926494270939,1.0341036879996333,1.033903471035666,-1.3945767903561221,0.3561363089598744,-1.37824129536813,0.6471169299189322,-0.22201594213237524,-0.5191854579226104,1.9435136737910264,-0.3276932335802828,0.08226947285790051,-1.273939825414725,0.2178326511005418,-0.2952307509423926,-0.06334703540262131,-0.6719852606015666,0.9889685862465126,-0.10669974958861769,0.9747376014394543,1.3338817429625403,0.910219910596532,-0.8124709687375724,-0.8103739829110189,0.2184738951909623,-1.301770473896542,0.06784227629238455,-1.4003072708738926,0.3155261369359811,-0.4621617895640186,2.5091721545820445,-0.42818166401194624,-0.7344289822043231,1.0165565517835395,-0.08204939737477276,-1.002843721477185,-0.5284057796564773,0.4622979687666546,0.5142279380867796,-0.4690611556866719,-0.8885915713796128,-1.239551821854764,0.08963360858326437,1.2522384310951242,-1.4448171012509188,1.0524965127813293,-1.0564651412480695,0.48852015563251194,1.045223287781016,0.9695744698734108,-0.5834234340463739,1.7326832609046163,0.19928152852356726,0.39239165492394823,-0.2845745406277107,1.7419497544316112,-1.018862611930028,-0.5189828957778091,-0.3097531777951658,-0.38573157585731577,-0.47953359936686935,-0.6981411527354517,0.8907538031565956,-0.8142204591462158,-0.17926258728855485,-0.4098096827800428,-0.2886442379676238,0.5795798320123217,-0.8465507895267751,-1.135411173575569,0.7091458587776699,-0.9573505226202695,1.7192347325590862,0.35526893025839573,-0.23835206866210537,2.2794726632905107,-0.27424639973659076
